SpectraSuite Data File
++++++++++++++++++++++++++++++++++++
Date: Tue Jun 09 17:28:38 BST 2015
User: mpfc3
Dark Spectrum Present: No
Reference Spectrum Present: No
Number of Sampled Component Spectra: 1
Spectrometers: USB2E3636
Integration Time (usec): 30000 (USB2E3636)
Spectra Averaged: 100 (USB2E3636)
Boxcar Smoothing: 0 (USB2E3636)
Correct for Electrical Dark: No (USB2E3636)
Strobe/Lamp Enabled: No (USB2E3636)
Correct for Detector Non-linearity: No (USB2E3636)
Correct for Stray Light: No (USB2E3636)
Number of Pixels in Processed Spectrum: 2048
>>>>>Begin Processed Spectral Data<<<<<
180.28	0.00
180.65	151.43
181.02	152.27
181.39	153.40
181.77	154.11
182.14	155.60
182.51	155.32
182.88	156.13
183.25	157.19
183.63	157.02
184.00	157.67
184.37	158.87
184.74	157.66
185.11	157.63
185.49	157.67
185.86	157.62
186.23	157.95
186.60	158.11
186.97	157.94
187.35	157.82
187.72	157.54
188.09	157.42
188.46	157.57
188.83	157.38
189.20	158.30
189.58	159.80
189.95	159.92
190.32	159.66
190.69	159.92
191.06	159.80
191.43	159.86
191.81	159.66
192.18	160.24
192.55	159.75
192.92	159.92
193.29	160.31
193.66	160.48
194.03	159.66
194.41	160.27
194.78	160.65
195.15	160.56
195.52	160.53
195.89	160.54
196.26	160.54
196.63	160.39
197.01	160.67
197.38	160.84
197.75	161.01
198.12	160.55
198.49	160.58
198.86	160.84
199.23	160.41
199.60	160.20
199.98	160.54
200.35	161.20
200.72	160.70
201.09	160.74
201.46	160.79
201.83	161.46
202.20	160.56
202.57	161.01
202.94	160.74
203.31	160.50
203.69	160.94
204.06	162.54
204.43	160.79
204.80	160.98
205.17	161.76
205.54	160.64
205.91	161.10
206.28	161.37
206.65	161.35
207.02	161.44
207.39	161.19
207.76	161.60
208.14	161.69
208.51	161.43
208.88	161.95
209.25	161.44
209.62	161.45
209.99	161.54
210.36	161.61
210.73	161.83
211.10	162.03
211.47	161.66
211.84	161.95
212.21	161.51
212.58	161.49
212.95	161.38
213.32	161.68
213.69	161.25
214.06	161.80
214.43	161.65
214.80	161.50
215.17	161.57
215.55	161.56
215.92	162.32
216.29	161.70
216.66	162.10
217.03	161.23
217.40	162.04
217.77	161.63
218.14	162.25
218.51	161.62
218.88	161.87
219.25	162.04
219.62	162.41
219.99	162.19
220.36	162.66
220.73	162.82
221.10	161.92
221.47	162.16
221.84	161.85
222.21	162.83
222.58	161.78
222.95	161.87
223.32	161.86
223.69	162.03
224.06	162.48
224.43	162.29
224.80	162.22
225.17	162.79
225.54	162.48
225.91	162.31
226.27	172.06
226.64	162.11
227.01	162.07
227.38	162.39
227.75	162.54
228.12	161.99
228.49	163.22
228.86	161.70
229.23	162.34
229.60	162.19
229.97	161.94
230.34	162.32
230.71	162.74
231.08	162.65
231.45	162.51
231.82	162.05
232.19	162.50
232.56	162.17
232.93	162.40
233.30	162.29
233.66	163.02
234.03	162.47
234.40	162.17
234.77	162.31
235.14	162.60
235.51	162.20
235.88	162.32
236.25	162.44
236.62	163.25
236.99	162.47
237.36	162.76
237.73	162.53
238.09	162.53
238.46	162.20
238.83	162.92
239.20	162.34
239.57	163.29
239.94	162.25
240.31	162.81
240.68	162.60
241.05	162.18
241.41	163.00
241.78	162.29
242.15	162.67
242.52	162.51
242.89	162.85
243.26	162.29
243.63	162.52
244.00	162.51
244.36	162.43
244.73	162.34
245.10	162.43
245.47	162.70
245.84	162.44
246.21	163.03
246.58	163.36
246.94	163.13
247.31	162.86
247.68	162.16
248.05	162.76
248.42	162.71
248.79	162.93
249.15	162.66
249.52	162.38
249.89	162.48
250.26	163.52
250.63	162.00
251.00	163.19
251.36	162.72
251.73	162.36
252.10	163.28
252.47	162.89
252.84	162.75
253.20	162.71
253.57	162.61
253.94	162.83
254.31	162.51
254.68	162.64
255.05	162.53
255.41	162.89
255.78	162.74
256.15	162.58
256.52	162.95
256.88	162.78
257.25	162.80
257.62	162.47
257.99	162.83
258.36	163.21
258.72	162.60
259.09	162.41
259.46	162.74
259.83	162.50
260.19	163.28
260.56	162.37
260.93	162.70
261.30	162.54
261.67	162.59
262.03	162.51
262.40	163.23
262.77	162.93
263.14	163.17
263.50	163.29
263.87	162.54
264.24	162.61
264.61	162.74
264.97	163.02
265.34	163.11
265.71	162.87
266.07	163.06
266.44	162.89
266.81	162.82
267.18	162.79
267.54	163.45
267.91	163.57
268.28	162.52
268.64	162.42
269.01	162.63
269.38	162.58
269.75	162.99
270.11	162.56
270.48	163.05
270.85	163.36
271.21	162.99
271.58	163.31
271.95	163.06
272.32	163.62
272.68	162.98
273.05	162.57
273.42	163.21
273.78	162.84
274.15	162.97
274.52	162.77
274.88	162.68
275.25	163.00
275.62	162.91
275.98	162.69
276.35	162.98
276.72	163.56
277.08	162.72
277.45	162.95
277.82	163.13
278.18	162.16
278.55	162.85
278.92	163.05
279.28	162.87
279.65	163.01
280.01	163.12
280.38	162.94
280.75	162.70
281.11	162.55
281.48	162.85
281.85	162.46
282.21	162.79
282.58	163.26
282.95	163.20
283.31	162.74
283.68	162.79
284.04	162.82
284.41	163.51
284.78	163.11
285.14	165.67
285.51	164.48
285.87	162.98
286.24	162.94
286.61	163.43
286.97	163.28
287.34	162.49
287.70	163.74
288.07	163.13
288.44	162.81
288.80	162.88
289.17	162.76
289.53	162.46
289.90	163.28
290.26	163.13
290.63	162.95
291.00	162.90
291.36	163.26
291.73	163.10
292.09	163.25
292.46	163.09
292.82	163.00
293.19	163.27
293.56	162.89
293.92	162.48
294.29	163.06
294.65	163.39
295.02	163.05
295.38	162.95
295.75	163.25
296.11	163.40
296.48	163.09
296.84	163.25
297.21	163.23
297.57	162.81
297.94	163.44
298.30	163.36
298.67	162.87
299.04	163.23
299.40	162.68
299.77	162.85
300.13	162.96
300.50	163.75
300.86	162.81
301.23	163.26
301.59	163.35
301.96	163.13
302.32	163.23
302.69	162.89
303.05	163.01
303.42	163.09
303.78	162.78
304.14	163.26
304.51	163.13
304.87	163.07
305.24	162.73
305.60	163.28
305.97	163.56
306.33	163.73
306.70	162.99
307.06	163.44
307.43	164.34
307.79	162.90
308.16	162.61
308.52	163.29
308.88	162.59
309.25	163.35
309.61	163.42
309.98	162.82
310.34	163.23
310.71	163.37
311.07	163.10
311.44	163.20
311.80	163.28
312.16	163.48
312.53	162.65
312.89	163.05
313.26	163.16
313.62	163.00
313.98	163.30
314.35	162.91
314.71	163.56
315.08	163.08
315.44	163.01
315.80	163.49
316.17	163.26
316.53	165.35
316.90	163.41
317.26	163.31
317.62	163.43
317.99	163.17
318.35	163.50
318.72	163.07
319.08	162.91
319.44	163.71
319.81	163.30
320.17	163.79
320.53	163.74
320.90	163.36
321.26	162.95
321.62	163.85
321.99	163.01
322.35	164.01
322.72	162.82
323.08	162.87
323.44	163.84
323.81	163.52
324.17	162.91
324.53	163.81
324.90	163.27
325.26	163.08
325.62	163.21
325.99	163.20
326.35	163.56
326.71	163.05
327.08	163.20
327.44	163.12
327.80	163.61
328.16	164.26
328.53	163.31
328.89	162.70
329.25	162.93
329.62	163.36
329.98	163.42
330.34	163.03
330.71	163.37
331.07	163.84
331.43	163.07
331.79	163.71
332.16	163.15
332.52	162.88
332.88	163.23
333.24	163.25
333.61	163.25
333.97	163.21
334.33	163.22
334.70	163.51
335.06	163.47
335.42	163.48
335.78	165.08
336.15	163.76
336.51	163.50
336.87	163.17
337.23	163.06
337.60	163.49
337.96	163.08
338.32	163.34
338.68	163.47
339.04	163.68
339.41	163.08
339.77	163.95
340.13	163.12
340.49	163.29
340.86	163.26
341.22	163.16
341.58	163.34
341.94	163.35
342.30	163.16
342.67	163.49
343.03	163.54
343.39	163.24
343.75	163.50
344.11	163.82
344.48	163.20
344.84	163.93
345.20	162.85
345.56	163.50
345.92	163.82
346.28	164.06
346.65	164.59
347.01	162.88
347.37	163.07
347.73	163.97
348.09	163.27
348.45	163.19
348.82	164.21
349.18	163.07
349.54	163.14
349.90	163.64
350.26	163.44
350.62	163.52
350.98	163.89
351.35	163.79
351.71	163.68
352.07	163.32
352.43	163.09
352.79	163.43
353.15	163.37
353.51	164.85
353.87	163.73
354.24	164.13
354.60	163.62
354.96	163.39
355.32	163.23
355.68	163.80
356.04	163.99
356.40	163.92
356.76	164.29
357.12	163.33
357.48	163.02
357.85	163.89
358.21	163.61
358.57	163.09
358.93	163.69
359.29	163.62
359.65	163.39
360.01	163.49
360.37	163.88
360.73	163.85
361.09	163.51
361.45	163.49
361.81	163.79
362.17	164.38
362.53	163.91
362.89	163.72
363.25	163.88
363.62	163.92
363.98	163.35
364.34	163.56
364.70	163.62
365.06	163.49
365.42	163.66
365.78	163.48
366.14	163.70
366.50	163.15
366.86	163.53
367.22	164.05
367.58	163.64
367.94	164.14
368.30	163.95
368.66	164.25
369.02	165.00
369.38	163.48
369.74	164.20
370.10	164.34
370.46	164.72
370.82	164.18
371.18	163.84
371.54	164.08
371.90	164.29
372.26	163.87
372.62	164.32
372.98	163.81
373.33	164.25
373.69	164.12
374.05	164.18
374.41	163.96
374.77	164.30
375.13	163.85
375.49	164.30
375.85	164.50
376.21	164.49
376.57	164.47
376.93	164.37
377.29	164.71
377.65	164.47
378.01	164.86
378.37	164.88
378.73	164.94
379.08	164.62
379.44	164.73
379.80	164.42
380.16	165.10
380.52	165.34
380.88	165.16
381.24	165.13
381.60	165.31
381.96	165.29
382.32	165.27
382.67	165.25
383.03	165.74
383.39	165.70
383.75	165.96
384.11	166.41
384.47	166.28
384.83	166.39
385.19	166.73
385.54	166.93
385.90	166.89
386.26	166.94
386.62	167.15
386.98	167.32
387.34	167.23
387.70	166.98
388.05	167.84
388.41	167.86
388.77	168.62
389.13	168.38
389.49	169.09
389.85	168.67
390.20	169.44
390.56	169.16
390.92	169.81
391.28	169.35
391.64	169.55
391.99	170.23
392.35	170.34
392.71	171.24
393.07	170.70
393.43	171.37
393.78	171.80
394.14	171.77
394.50	172.34
394.86	172.99
395.22	172.80
395.57	173.29
395.93	173.18
396.29	173.49
396.65	173.99
397.00	174.39
397.36	174.87
397.72	174.74
398.08	174.86
398.43	176.03
398.79	176.23
399.15	176.59
399.51	177.62
399.86	177.20
400.22	177.47
400.58	178.07
400.94	178.64
401.29	178.89
401.65	179.42
402.01	179.89
402.37	179.72
402.72	180.79
403.08	181.75
403.44	182.25
403.79	181.29
404.15	181.43
404.51	182.71
404.86	182.81
405.22	184.33
405.58	184.07
405.94	185.23
406.29	185.36
406.65	185.62
407.01	185.71
407.36	186.75
407.72	186.43
408.08	187.70
408.43	188.90
408.79	188.92
409.15	189.09
409.50	189.90
409.86	189.16
410.22	190.49
410.57	190.83
410.93	191.75
411.29	195.01
411.64	192.39
412.00	193.72
412.35	194.56
412.71	194.50
413.07	195.66
413.42	195.90
413.78	197.23
414.14	197.56
414.49	198.63
414.85	198.51
415.20	200.62
415.56	201.45
415.92	201.15
416.27	201.98
416.63	203.82
416.98	203.04
417.34	205.38
417.70	204.94
418.05	206.44
418.41	206.26
418.76	208.42
419.12	207.54
419.47	209.33
419.83	209.21
420.19	211.85
420.54	211.98
420.90	212.73
421.25	212.85
421.61	213.65
421.96	213.68
422.32	216.51
422.67	217.17
423.03	217.49
423.39	218.48
423.74	220.25
424.10	221.18
424.45	220.99
424.81	220.80
425.16	222.43
425.52	224.26
425.87	224.22
426.23	226.75
426.58	226.57
426.94	228.95
427.29	231.68
427.65	231.35
428.00	231.01
428.36	232.58
428.71	232.94
429.07	233.53
429.42	235.25
429.78	236.45
430.13	238.77
430.49	238.22
430.84	240.24
431.19	241.49
431.55	240.73
431.90	243.67
432.26	244.00
432.61	245.64
432.97	246.92
433.32	249.21
433.68	249.05
434.03	249.75
434.39	252.41
434.74	251.51
435.09	254.75
435.45	254.28
435.80	257.34
436.16	256.13
436.51	257.57
436.86	260.09
437.22	261.94
437.57	266.39
437.93	266.18
438.28	268.34
438.63	267.88
438.99	269.92
439.34	272.95
439.70	271.04
440.05	270.91
440.40	275.81
440.76	276.54
441.11	278.25
441.47	285.62
441.82	283.04
442.17	284.12
442.53	284.31
442.88	284.90
443.23	288.25
443.59	286.17
443.94	291.98
444.29	291.54
444.65	294.05
445.00	294.19
445.35	296.06
445.71	296.87
446.06	299.73
446.41	297.74
446.77	300.20
447.12	305.13
447.47	303.15
447.83	309.58
448.18	308.61
448.53	305.22
448.89	308.95
449.24	310.63
449.59	319.44
449.94	315.93
450.30	314.63
450.65	318.48
451.00	326.00
451.36	326.21
451.71	323.55
452.06	326.56
452.41	330.40
452.77	329.11
453.12	337.29
453.47	337.31
453.82	341.55
454.18	330.98
454.53	340.41
454.88	339.77
455.23	346.77
455.59	342.18
455.94	348.28
456.29	352.62
456.64	347.93
457.00	347.95
457.35	358.00
457.70	354.33
458.05	361.96
458.40	366.17
458.76	369.33
459.11	370.06
459.46	366.13
459.81	367.19
460.16	370.45
460.52	381.74
460.87	378.13
461.22	380.57
461.57	385.24
461.92	382.16
462.28	389.69
462.63	398.43
462.98	397.43
463.33	401.47
463.68	405.66
464.03	403.33
464.38	408.91
464.74	407.45
465.09	410.39
465.44	421.23
465.79	424.43
466.14	421.21
466.49	430.63
466.84	434.33
467.20	439.06
467.55	444.06
467.90	446.54
468.25	447.77
468.60	458.22
468.95	451.77
469.30	457.36
469.65	465.01
470.00	468.23
470.36	476.04
470.71	487.50
471.06	486.67
471.41	484.46
471.76	495.01
472.11	497.78
472.46	504.01
472.81	508.70
473.16	516.57
473.51	517.49
473.86	524.77
474.21	529.72
474.56	540.41
474.91	542.38
475.26	545.34
475.62	549.67
475.97	564.01
476.32	557.13
476.67	562.91
477.02	574.36
477.37	582.50
477.72	589.43
478.07	593.68
478.42	593.35
478.77	601.76
479.12	616.50
479.47	615.26
479.82	620.83
480.17	631.62
480.52	643.65
480.87	644.08
481.22	643.24
481.57	651.61
481.92	647.47
482.27	663.75
482.62	674.77
482.97	674.73
483.32	680.57
483.67	680.84
484.02	685.46
484.36	691.78
484.71	702.22
485.06	708.24
485.41	711.38
485.76	722.72
486.11	723.03
486.46	728.13
486.81	733.63
487.16	736.47
487.51	745.71
487.86	752.50
488.21	761.02
488.56	766.94
488.91	768.19
489.25	780.82
489.60	785.16
489.95	790.04
490.30	797.75
490.65	804.15
491.00	811.72
491.35	815.57
491.70	816.80
492.05	827.89
492.39	836.70
492.74	841.20
493.09	851.29
493.44	852.34
493.79	859.24
494.14	867.19
494.49	869.56
494.83	876.89
495.18	887.91
495.53	892.92
495.88	905.32
496.23	912.29
496.58	912.58
496.92	918.77
497.27	930.28
497.62	938.95
497.97	938.23
498.32	949.21
498.67	953.01
499.01	964.81
499.36	968.54
499.71	972.05
500.06	978.04
500.41	989.83
500.75	997.46
501.10	999.40
501.45	1008.89
501.80	1012.32
502.14	1017.49
502.49	1021.36
502.84	1025.64
503.19	1039.54
503.53	1041.79
503.88	1048.28
504.23	1051.99
504.58	1057.41
504.92	1061.62
505.27	1066.89
505.62	1072.27
505.97	1075.81
506.31	1079.03
506.66	1087.76
507.01	1090.41
507.36	1094.54
507.70	1098.34
508.05	1102.73
508.40	1104.43
508.74	1108.46
509.09	1107.27
509.44	1107.55
509.79	1112.23
510.13	1114.27
510.48	1116.96
510.83	1119.80
511.17	1118.02
511.52	1122.60
511.87	1124.89
512.21	1126.82
512.56	1128.75
512.91	1130.41
513.25	1137.96
513.60	1133.93
513.95	1139.70
514.29	1140.47
514.64	1143.53
514.98	1146.60
515.33	1145.94
515.68	1151.03
516.02	1156.00
516.37	1151.92
516.72	1151.59
517.06	1160.54
517.41	1161.97
517.75	1156.47
518.10	1165.00
518.45	1162.09
518.79	1166.41
519.14	1171.49
519.48	1171.12
519.83	1169.99
520.18	1169.47
520.52	1172.07
520.87	1179.60
521.21	1175.28
521.56	1172.23
521.90	1172.62
522.25	1174.46
522.60	1173.73
522.94	1181.80
523.29	1183.79
523.63	1175.06
523.98	1175.03
524.32	1179.06
524.67	1177.16
525.01	1173.60
525.36	1172.51
525.70	1175.80
526.05	1179.95
526.39	1167.31
526.74	1172.72
527.08	1168.75
527.43	1167.03
527.77	1164.22
528.12	1167.37
528.46	1162.33
528.81	1162.21
529.15	1161.45
529.50	1160.11
529.84	1153.90
530.19	1155.24
530.53	1145.21
530.88	1139.65
531.22	1143.75
531.57	1137.88
531.91	1133.68
532.26	1127.00
532.60	1122.01
532.94	1117.31
533.29	1114.89
533.63	1111.63
533.98	1104.40
534.32	1102.58
534.67	1096.48
535.01	1086.41
535.35	1080.01
535.70	1071.91
536.04	1067.39
536.39	1061.07
536.73	1052.44
537.07	1049.19
537.42	1045.07
537.76	1037.18
538.11	1025.20
538.45	1022.47
538.79	1016.74
539.14	1011.83
539.48	1002.68
539.82	997.82
540.17	995.79
540.51	989.93
540.85	982.61
541.20	976.53
541.54	972.18
541.89	966.30
542.23	963.45
542.57	961.40
542.92	960.09
543.26	957.24
543.60	961.27
543.94	957.93
544.29	955.48
544.63	951.02
544.97	956.83
545.32	957.09
545.66	956.43
546.00	957.86
546.35	959.18
546.69	962.81
547.03	958.87
547.37	963.92
547.72	963.96
548.06	971.20
548.40	973.12
548.75	977.63
549.09	980.86
549.43	983.69
549.77	987.13
550.12	988.22
550.46	998.88
550.80	998.66
551.14	1008.41
551.49	1013.19
551.83	1026.01
552.17	1027.48
552.51	1029.50
552.85	1040.28
553.20	1041.53
553.54	1053.14
553.88	1063.24
554.22	1067.28
554.56	1085.46
554.91	1092.37
555.25	1098.17
555.59	1109.53
555.93	1117.87
556.27	1126.48
556.62	1137.29
556.96	1150.43
557.30	1153.95
557.64	1161.30
557.98	1171.87
558.32	1186.31
558.67	1195.83
559.01	1204.51
559.35	1211.37
559.69	1222.52
560.03	1235.46
560.37	1249.10
560.71	1252.07
561.05	1261.38
561.40	1262.54
561.74	1280.71
562.08	1281.72
562.42	1290.25
562.76	1305.53
563.10	1307.67
563.44	1313.03
563.78	1321.95
564.12	1330.96
564.46	1335.25
564.81	1338.03
565.15	1344.81
565.49	1341.60
565.83	1351.87
566.17	1351.49
566.51	1353.70
566.85	1356.29
567.19	1361.74
567.53	1363.11
567.87	1371.08
568.21	1368.82
568.55	1363.23
568.89	1367.57
569.23	1371.24
569.57	1364.30
569.91	1366.38
570.25	1360.98
570.59	1370.32
570.93	1366.05
571.27	1361.10
571.61	1358.13
571.95	1359.90
572.29	1356.74
572.63	1357.15
572.97	1357.27
573.31	1347.14
573.65	1340.88
573.99	1337.41
574.33	1334.23
574.67	1333.82
575.01	1323.02
575.35	1322.70
575.69	1318.76
576.03	1320.14
576.37	1312.85
576.71	1308.16
577.05	1297.14
577.39	1289.77
577.73	1286.75
578.06	1285.61
578.40	1280.04
578.74	1267.18
579.08	1261.93
579.42	1261.10
579.76	1246.78
580.10	1245.38
580.44	1237.86
580.78	1230.49
581.12	1222.45
581.45	1221.39
581.79	1212.55
582.13	1200.25
582.47	1201.34
582.81	1192.03
583.15	1191.68
583.49	1180.76
583.83	1173.91
584.16	1168.14
584.50	1167.17
584.84	1163.57
585.18	1151.50
585.52	1145.69
585.86	1144.94
586.19	1136.51
586.53	1133.33
586.87	1125.93
587.21	1112.38
587.55	1119.02
587.88	1112.91
588.22	1105.50
588.56	1098.11
588.90	1089.72
589.24	1084.15
589.57	1077.21
589.91	1072.47
590.25	1061.02
590.59	1052.30
590.92	1048.87
591.26	1042.80
591.60	1030.84
591.94	1022.19
592.27	1014.38
592.61	1002.85
592.95	996.14
593.29	987.52
593.62	980.64
593.96	966.63
594.30	960.26
594.64	948.25
594.97	937.73
595.31	924.69
595.65	911.82
595.98	898.42
596.32	880.79
596.66	870.78
597.00	857.93
597.33	844.04
597.67	821.17
598.01	810.19
598.34	795.45
598.68	777.93
599.02	763.21
599.35	745.59
599.69	735.16
600.03	721.04
600.36	706.28
600.70	694.53
601.03	682.11
601.37	671.83
601.71	659.42
602.04	647.78
602.38	632.51
602.72	625.04
603.05	614.19
603.39	601.23
603.72	590.48
604.06	579.48
604.40	568.90
604.73	554.23
605.07	544.88
605.40	532.83
605.74	523.20
606.08	509.30
606.41	498.52
606.75	487.12
607.08	475.42
607.42	465.01
607.75	454.02
608.09	442.08
608.42	431.14
608.76	420.39
609.10	411.14
609.43	399.42
609.77	388.86
610.10	379.76
610.44	369.92
610.77	359.81
611.11	351.84
611.44	341.04
611.78	333.73
612.11	325.39
612.45	317.48
612.78	309.05
613.12	301.84
613.45	294.82
613.79	288.42
614.12	281.57
614.46	275.81
614.79	269.80
615.13	264.61
615.46	259.98
615.79	255.53
616.13	251.04
616.46	246.87
616.80	242.90
617.13	239.46
617.47	236.05
617.80	232.71
618.13	230.67
618.47	227.38
618.80	224.82
619.14	222.93
619.47	219.63
619.81	218.27
620.14	216.74
620.47	214.13
620.81	213.15
621.14	211.51
621.47	209.85
621.81	208.32
622.14	208.15
622.48	205.91
622.81	204.94
623.14	203.63
623.48	203.19
623.81	201.92
624.14	200.56
624.48	200.33
624.81	199.49
625.14	199.54
625.48	199.17
625.81	199.07
626.14	199.37
626.48	199.09
626.81	198.39
627.14	199.65
627.48	199.18
627.81	199.81
628.14	201.42
628.47	203.26
628.81	202.35
629.14	203.98
629.47	205.04
629.81	206.92
630.14	207.33
630.47	209.50
630.80	211.62
631.14	213.33
631.47	216.71
631.80	219.08
632.13	221.60
632.47	224.57
632.80	228.98
633.13	232.27
633.46	235.36
633.79	239.70
634.13	244.80
634.46	249.35
634.79	255.21
635.12	260.24
635.45	265.68
635.79	271.69
636.12	277.98
636.45	284.91
636.78	291.67
637.11	300.23
637.45	307.82
637.78	315.16
638.11	323.24
638.44	331.96
638.77	340.28
639.10	348.68
639.44	357.07
639.77	367.09
640.10	376.32
640.43	383.83
640.76	394.57
641.09	402.91
641.42	411.61
641.75	421.86
642.08	431.71
642.42	441.62
642.75	449.96
643.08	460.92
643.41	470.15
643.74	478.43
644.07	486.25
644.40	495.10
644.73	503.02
645.06	511.08
645.39	521.18
645.72	528.41
646.05	533.37
646.38	542.04
646.72	549.58
647.05	556.12
647.38	561.61
647.71	566.89
648.04	572.82
648.37	577.73
648.70	579.23
649.03	585.08
649.36	588.80
649.69	589.52
650.02	594.59
650.35	595.66
650.68	597.13
651.01	595.61
651.34	596.34
651.67	593.77
652.00	595.32
652.33	589.53
652.66	586.96
652.99	582.52
653.31	580.13
653.64	572.10
653.97	565.49
654.30	561.13
654.63	549.89
654.96	542.21
655.29	536.90
655.62	525.49
655.95	517.43
656.28	508.03
656.61	498.55
656.94	490.59
657.27	479.85
657.60	469.45
657.92	461.69
658.25	452.30
658.58	444.28
658.91	435.23
659.24	427.20
659.57	418.57
659.90	411.48
660.23	403.45
660.55	397.27
660.88	389.22
661.21	382.20
661.54	375.26
661.87	370.65
662.20	362.74
662.52	357.39
662.85	351.05
663.18	344.91
663.51	339.43
663.84	332.78
664.16	326.71
664.49	324.07
664.82	318.09
665.15	314.94
665.48	310.02
665.80	305.54
666.13	301.48
666.46	296.91
666.79	292.95
667.12	290.54
667.44	287.33
667.77	284.23
668.10	280.75
668.43	277.46
668.75	275.17
669.08	272.11
669.41	269.65
669.73	266.73
670.06	264.72
670.39	263.51
670.72	260.54
671.04	258.54
671.37	257.11
671.70	255.60
672.02	254.07
672.35	252.41
672.68	250.98
673.00	249.18
673.33	248.42
673.66	246.65
673.98	245.62
674.31	244.75
674.64	243.45
674.96	243.11
675.29	242.02
675.62	241.68
675.94	240.20
676.27	240.66
676.60	239.92
676.92	239.44
677.25	238.79
677.58	238.52
677.90	238.09
678.23	237.33
678.55	236.89
678.88	237.50
679.21	235.74
679.53	235.53
679.86	234.57
680.18	234.17
680.51	232.86
680.83	232.10
681.16	233.27
681.49	231.38
681.81	230.90
682.14	230.28
682.46	229.35
682.79	228.30
683.11	227.69
683.44	226.49
683.76	226.44
684.09	225.73
684.41	225.50
684.74	224.55
685.06	224.07
685.39	223.41
685.71	222.43
686.04	222.42
686.36	222.14
686.69	221.50
687.01	220.45
687.34	220.50
687.66	219.31
687.99	218.31
688.31	218.64
688.64	218.08
688.96	217.03
689.29	216.14
689.61	215.69
689.93	214.79
690.26	213.49
690.58	212.65
690.91	213.16
691.23	211.49
691.56	209.88
691.88	208.27
692.20	207.90
692.53	206.61
692.85	204.93
693.18	204.09
693.50	202.30
693.82	200.54
694.15	199.42
694.47	197.88
694.79	195.99
695.12	194.95
695.44	193.13
695.76	191.59
696.09	190.12
696.41	188.38
696.73	188.45
697.06	185.37
697.38	184.35
697.70	182.49
698.03	181.05
698.35	180.22
698.67	178.82
699.00	176.79
699.32	176.79
699.64	175.58
699.97	174.22
700.29	172.97
700.61	172.27
700.93	171.80
701.26	170.60
701.58	170.21
701.90	169.56
702.22	168.44
702.55	167.95
702.87	167.24
703.19	166.57
703.51	166.81
703.84	166.00
704.16	165.51
704.48	165.49
704.80	164.66
705.13	164.95
705.45	164.88
705.77	164.20
706.09	165.05
706.41	164.71
706.74	163.87
707.06	163.84
707.38	163.51
707.70	163.70
708.02	162.59
708.34	162.85
708.67	162.82
708.99	162.25
709.31	162.82
709.63	162.57
709.95	162.59
710.27	162.88
710.59	162.80
710.92	163.20
711.24	162.92
711.56	162.62
711.88	162.31
712.20	162.03
712.52	162.20
712.84	162.15
713.16	162.22
713.48	161.86
713.80	162.03
714.12	162.11
714.45	161.49
714.77	161.61
715.09	161.99
715.41	162.12
715.73	161.54
716.05	162.00
716.37	161.79
716.69	161.66
717.01	161.31
717.33	163.16
717.65	161.94
717.97	162.22
718.29	161.62
718.61	161.64
718.93	162.18
719.25	161.87
719.57	161.57
719.89	162.01
720.21	161.65
720.53	162.02
720.85	161.92
721.17	161.98
721.49	161.60
721.81	161.75
722.13	161.99
722.45	161.40
722.77	161.62
723.09	161.77
723.41	161.36
723.72	160.84
724.04	161.52
724.36	161.90
724.68	161.40
725.00	162.51
725.32	161.69
725.64	161.08
725.96	161.99
726.28	161.32
726.60	161.74
726.91	161.42
727.23	161.80
727.55	162.00
727.87	160.85
728.19	161.12
728.51	161.20
728.83	161.79
729.14	161.90
729.46	161.67
729.78	161.47
730.10	161.31
730.42	160.99
730.74	161.51
731.05	161.64
731.37	161.39
731.69	161.72
732.01	161.52
732.33	161.30
732.64	161.48
732.96	161.59
733.28	161.69
733.60	161.20
733.92	161.84
734.23	161.47
734.55	161.59
734.87	161.07
735.19	161.71
735.50	161.27
735.82	161.62
736.14	161.18
736.45	161.53
736.77	161.25
737.09	161.03
737.41	161.48
737.72	161.55
738.04	161.61
738.36	161.38
738.67	161.57
738.99	161.09
739.31	161.37
739.63	161.56
739.94	161.33
740.26	161.29
740.58	161.40
740.89	161.02
741.21	161.30
741.52	160.89
741.84	161.01
742.16	160.87
742.47	161.57
742.79	161.08
743.11	161.48
743.42	162.11
743.74	167.13
744.05	161.20
744.37	161.45
744.69	161.16
745.00	161.09
745.32	161.34
745.63	161.55
745.95	161.22
746.27	161.25
746.58	160.66
746.90	161.18
747.21	160.97
747.53	161.35
747.84	161.09
748.16	160.94
748.47	160.88
748.79	160.92
749.10	160.95
749.42	161.26
749.74	161.38
750.05	160.84
750.37	160.79
750.68	161.21
751.00	161.15
751.31	161.02
751.62	160.98
751.94	161.05
752.25	161.39
752.57	161.03
752.88	161.96
753.20	161.17
753.51	160.71
753.83	161.53
754.14	161.44
754.46	160.68
754.77	161.10
755.08	160.92
755.40	160.73
755.71	160.82
756.03	160.93
756.34	160.66
756.66	160.60
756.97	160.82
757.28	161.23
757.60	160.61
757.91	161.24
758.22	160.70
758.54	160.79
758.85	160.45
759.17	160.87
759.48	160.55
759.79	160.80
760.11	160.56
760.42	160.95
760.73	161.02
761.05	160.69
761.36	160.51
761.67	160.87
761.99	160.32
762.30	160.94
762.61	160.73
762.92	161.15
763.24	160.68
763.55	160.88
763.86	161.39
764.18	160.75
764.49	160.57
764.80	160.76
765.11	160.70
765.43	160.49
765.74	160.72
766.05	160.86
766.36	161.19
766.68	160.58
766.99	160.92
767.30	160.93
767.61	160.53
767.93	161.08
768.24	161.06
768.55	160.88
768.86	160.92
769.17	160.99
769.49	160.64
769.80	161.36
770.11	160.58
770.42	160.74
770.73	161.07
771.04	161.01
771.36	160.56
771.67	160.80
771.98	160.53
772.29	161.10
772.60	160.94
772.91	160.33
773.22	160.79
773.54	160.57
773.85	161.13
774.16	160.78
774.47	160.57
774.78	160.99
775.09	160.80
775.40	160.29
775.71	160.65
776.02	160.85
776.33	160.61
776.64	160.63
776.96	160.52
777.27	160.29
777.58	160.98
777.89	160.41
778.20	160.36
778.51	160.75
778.82	160.63
779.13	161.23
779.44	160.96
779.75	160.86
780.06	160.10
780.37	161.17
780.68	161.06
780.99	160.69
781.30	160.75
781.61	160.91
781.92	160.44
782.23	160.61
782.54	160.85
782.85	160.72
783.16	160.69
783.47	160.71
783.78	160.87
784.08	161.17
784.39	160.25
784.70	160.95
785.01	160.67
785.32	160.47
785.63	160.37
785.94	160.56
786.25	160.20
786.56	160.54
786.87	160.49
787.18	160.23
787.48	160.27
787.79	160.48
788.10	160.17
788.41	160.78
788.72	160.35
789.03	160.83
789.34	160.53
789.64	160.48
789.95	160.50
790.26	160.14
790.57	161.01
790.88	160.06
791.19	160.42
791.49	160.28
791.80	161.76
792.11	160.68
792.42	160.26
792.73	160.06
793.03	160.20
793.34	160.69
793.65	160.80
793.96	160.65
794.27	160.29
794.57	160.70
794.88	160.76
795.19	160.46
795.50	160.51
795.80	160.32
796.11	160.82
796.42	160.49
796.72	160.34
797.03	160.52
797.34	160.74
797.65	160.54
797.95	161.64
798.26	160.49
798.57	160.32
798.87	160.67
799.18	160.52
799.49	160.20
799.79	160.72
800.10	160.15
800.41	159.63
800.71	160.35
801.02	160.22
801.33	159.95
801.63	160.52
801.94	159.99
802.24	161.21
802.55	160.38
802.86	160.58
803.16	160.81
803.47	161.02
803.77	160.41
804.08	160.57
804.39	160.72
804.69	160.26
805.00	160.54
805.30	160.28
805.61	159.89
805.91	160.37
806.22	160.35
806.53	162.91
806.83	159.82
807.14	160.28
807.44	160.21
807.75	160.29
808.05	160.41
808.36	160.45
808.66	160.20
808.97	160.18
809.27	160.39
809.58	160.57
809.88	161.04
810.19	160.26
810.49	160.39
810.80	160.29
811.10	160.11
811.41	159.96
811.71	160.54
812.01	161.02
812.32	160.09
812.62	160.60
812.93	160.40
813.23	159.95
813.54	160.66
813.84	160.55
814.14	160.35
814.45	160.48
814.75	160.54
815.06	161.55
815.36	160.40
815.66	160.82
815.97	160.08
816.27	160.56
816.58	160.06
816.88	160.03
817.18	160.47
817.49	160.14
817.79	160.80
818.09	160.78
818.40	160.73
818.70	159.88
819.00	160.75
819.31	160.41
819.61	160.16
819.91	160.02
820.21	160.74
820.52	159.97
820.82	160.54
821.12	160.48
821.43	160.44
821.73	160.31
822.03	159.84
822.33	160.24
822.64	160.68
822.94	160.59
823.24	159.78
823.54	160.38
823.85	159.85
824.15	160.70
824.45	160.88
824.75	160.27
825.05	160.46
825.36	160.05
825.66	160.70
825.96	160.08
826.26	160.48
826.56	160.43
826.87	160.51
827.17	160.95
827.47	160.66
827.77	160.08
828.07	160.50
828.37	160.30
828.67	160.40
828.98	160.29
829.28	160.14
829.58	160.15
829.88	160.45
830.18	161.62
830.48	161.13
830.78	160.15
831.08	160.40
831.38	159.65
831.69	160.35
831.99	160.35
832.29	160.50
832.59	160.54
832.89	160.26
833.19	160.46
833.49	160.38
833.79	160.01
834.09	162.92
834.39	159.91
834.69	160.49
834.99	160.65
835.29	159.92
835.59	160.18
835.89	161.20
836.19	159.84
836.49	160.88
836.79	160.32
837.09	160.26
837.39	160.15
837.69	160.53
837.99	160.65
838.29	159.95
838.59	160.17
838.89	160.51
839.19	160.75
839.49	160.01
839.79	159.47
840.09	160.47
840.39	160.42
840.68	160.46
840.98	160.18
841.28	160.63
841.58	160.29
841.88	160.76
842.18	160.27
842.48	159.91
842.78	160.34
843.08	161.40
843.37	160.41
843.67	161.21
843.97	160.55
844.27	160.16
844.57	160.47
844.87	160.46
845.16	160.24
845.46	160.35
845.76	159.90
846.06	160.29
846.36	160.37
846.66	160.33
846.95	160.43
847.25	160.65
847.55	160.05
847.85	159.52
848.14	160.15
848.44	160.56
848.74	160.54
849.04	160.36
849.33	160.19
849.63	160.43
849.93	160.57
850.23	160.06
850.52	160.39
850.82	160.06
851.12	160.37
851.42	160.65
851.71	160.22
852.01	160.48
852.31	159.73
852.60	159.78
852.90	159.80
853.20	160.09
853.49	160.14
853.79	160.24
854.09	160.51
854.38	160.35
854.68	160.08
854.98	160.15
855.27	160.32
855.57	159.95
855.86	160.34
856.16	160.02
856.46	159.66
856.75	160.32
857.05	159.83
857.34	160.06
857.64	159.75
857.94	161.79
858.23	160.27
858.53	160.47
858.82	160.45
859.12	160.62
859.41	159.80
859.71	160.11
860.01	160.24
860.30	160.52
860.60	159.89
860.89	162.08
861.19	160.37
861.48	160.25
861.78	160.43
862.07	160.29
862.37	160.27
862.66	160.15
862.96	160.33
863.25	160.09
863.55	160.22
863.84	160.21
864.13	159.40
864.43	160.17
864.72	160.19
865.02	160.00
865.31	160.35
865.61	160.12
865.90	160.07
866.19	160.37
866.49	160.28
866.78	160.58
867.08	160.21
867.37	159.79
867.66	159.86
867.96	160.31
868.25	161.16
868.55	160.95
868.84	160.22
869.13	160.63
869.43	160.07
869.72	160.21
870.01	160.13
870.31	159.75
870.60	160.15
870.89	160.14
871.19	160.94
871.48	160.39
871.77	160.18
872.07	160.49
872.36	160.51
872.65	160.85
872.94	160.15
873.24	160.47
873.53	160.61
873.82	159.83
874.11	160.44
874.41	159.72
874.70	160.30
>>>>>End Processed Spectral Data<<<<<
