SpectraSuite Data File
++++++++++++++++++++++++++++++++++++
Date: Tue Jun 09 17:25:03 BST 2015
User: mpfc3
Dark Spectrum Present: No
Reference Spectrum Present: No
Number of Sampled Component Spectra: 1
Spectrometers: USB2E3636
Integration Time (usec): 30000 (USB2E3636)
Spectra Averaged: 100 (USB2E3636)
Boxcar Smoothing: 0 (USB2E3636)
Correct for Electrical Dark: No (USB2E3636)
Strobe/Lamp Enabled: No (USB2E3636)
Correct for Detector Non-linearity: No (USB2E3636)
Correct for Stray Light: No (USB2E3636)
Number of Pixels in Processed Spectrum: 2048
>>>>>Begin Processed Spectral Data<<<<<
180.28	0.00
180.65	151.08
181.02	151.73
181.39	152.70
181.77	154.12
182.14	155.22
182.51	154.77
182.88	156.10
183.25	157.45
183.63	156.28
184.00	157.04
184.37	158.84
184.74	157.79
185.11	157.69
185.49	157.37
185.86	157.20
186.23	156.91
186.60	157.08
186.97	157.47
187.35	157.03
187.72	157.61
188.09	157.25
188.46	157.38
188.83	156.65
189.20	157.47
189.58	158.49
189.95	159.26
190.32	159.34
190.69	159.60
191.06	158.99
191.43	159.84
191.81	159.85
192.18	159.81
192.55	160.11
192.92	159.80
193.29	160.07
193.66	159.81
194.03	159.48
194.41	160.19
194.78	159.90
195.15	159.68
195.52	159.59
195.89	159.77
196.26	159.70
196.63	160.16
197.01	160.22
197.38	160.12
197.75	160.03
198.12	160.03
198.49	160.03
198.86	160.50
199.23	160.49
199.60	160.43
199.98	160.80
200.35	160.15
200.72	160.32
201.09	160.36
201.46	160.58
201.83	160.91
202.20	160.35
202.57	160.73
202.94	160.86
203.31	160.95
203.69	160.20
204.06	161.33
204.43	160.93
204.80	160.61
205.17	160.48
205.54	160.74
205.91	160.93
206.28	160.91
206.65	161.12
207.02	160.86
207.39	160.50
207.76	160.82
208.14	160.94
208.51	161.22
208.88	161.50
209.25	161.44
209.62	161.12
209.99	160.95
210.36	160.84
210.73	161.13
211.10	160.95
211.47	161.06
211.84	160.82
212.21	161.33
212.58	161.74
212.95	160.75
213.32	161.51
213.69	161.36
214.06	161.23
214.43	161.72
214.80	161.56
215.17	161.66
215.55	161.64
215.92	161.59
216.29	161.27
216.66	161.67
217.03	161.38
217.40	161.30
217.77	161.69
218.14	161.58
218.51	161.62
218.88	161.55
219.25	161.65
219.62	161.75
219.99	161.60
220.36	161.72
220.73	162.61
221.10	161.79
221.47	161.45
221.84	161.18
222.21	162.05
222.58	161.40
222.95	162.16
223.32	161.85
223.69	161.57
224.06	161.66
224.43	161.56
224.80	161.50
225.17	162.52
225.54	161.69
225.91	161.66
226.27	171.49
226.64	161.53
227.01	162.00
227.38	162.24
227.75	161.87
228.12	161.82
228.49	162.80
228.86	162.23
229.23	161.95
229.60	161.99
229.97	162.04
230.34	162.30
230.71	162.21
231.08	162.63
231.45	162.03
231.82	161.17
232.19	162.06
232.56	161.91
232.93	161.67
233.30	162.07
233.66	162.10
234.03	162.47
234.40	162.17
234.77	162.38
235.14	162.06
235.51	161.74
235.88	162.30
236.25	162.50
236.62	163.27
236.99	162.36
237.36	162.93
237.73	162.51
238.09	162.01
238.46	162.05
238.83	162.43
239.20	162.36
239.57	162.35
239.94	161.70
240.31	162.14
240.68	162.16
241.05	162.47
241.41	162.78
241.78	162.45
242.15	162.06
242.52	161.89
242.89	161.97
243.26	162.62
243.63	162.53
244.00	162.07
244.36	162.34
244.73	162.13
245.10	162.16
245.47	162.43
245.84	161.78
246.21	163.00
246.58	163.03
246.94	162.53
247.31	162.92
247.68	162.00
248.05	162.04
248.42	162.24
248.79	162.22
249.15	162.31
249.52	162.11
249.89	162.02
250.26	162.85
250.63	161.87
251.00	163.62
251.36	162.73
251.73	162.69
252.10	163.37
252.47	161.87
252.84	162.98
253.20	162.29
253.57	161.80
253.94	162.42
254.31	162.10
254.68	161.94
255.05	161.86
255.41	161.86
255.78	162.56
256.15	162.21
256.52	162.77
256.88	161.93
257.25	163.17
257.62	162.54
257.99	162.35
258.36	162.93
258.72	162.75
259.09	162.30
259.46	162.80
259.83	161.97
260.19	162.87
260.56	162.57
260.93	162.09
261.30	162.47
261.67	162.50
262.03	161.83
262.40	162.27
262.77	162.35
263.14	162.34
263.50	162.73
263.87	162.30
264.24	162.16
264.61	162.30
264.97	162.14
265.34	162.31
265.71	162.78
266.07	162.40
266.44	162.57
266.81	162.60
267.18	162.82
267.54	162.12
267.91	163.35
268.28	162.22
268.64	162.55
269.01	161.83
269.38	162.55
269.75	161.87
270.11	162.62
270.48	162.51
270.85	162.55
271.21	162.53
271.58	162.73
271.95	163.08
272.32	163.03
272.68	162.52
273.05	162.15
273.42	162.59
273.78	163.03
274.15	162.83
274.52	162.89
274.88	162.61
275.25	162.78
275.62	162.71
275.98	162.90
276.35	162.35
276.72	163.46
277.08	162.62
277.45	162.42
277.82	162.70
278.18	162.49
278.55	163.23
278.92	162.69
279.28	162.40
279.65	162.38
280.01	163.08
280.38	162.73
280.75	162.26
281.11	162.43
281.48	162.58
281.85	162.51
282.21	162.65
282.58	162.82
282.95	162.74
283.31	162.56
283.68	162.93
284.04	162.88
284.41	162.90
284.78	162.55
285.14	165.87
285.51	164.22
285.87	162.66
286.24	162.97
286.61	162.90
286.97	163.10
287.34	162.46
287.70	162.35
288.07	163.19
288.44	162.35
288.80	162.94
289.17	162.80
289.53	162.98
289.90	163.94
290.26	162.69
290.63	162.71
291.00	162.83
291.36	163.31
291.73	163.02
292.09	162.75
292.46	162.05
292.82	162.75
293.19	162.78
293.56	162.59
293.92	162.80
294.29	162.74
294.65	163.01
295.02	162.30
295.38	162.84
295.75	162.92
296.11	163.14
296.48	162.82
296.84	162.68
297.21	162.49
297.57	162.93
297.94	163.34
298.30	162.85
298.67	162.55
299.04	162.71
299.40	162.83
299.77	162.88
300.13	163.00
300.50	162.76
300.86	162.54
301.23	163.16
301.59	162.35
301.96	163.09
302.32	163.03
302.69	162.84
303.05	163.06
303.42	162.75
303.78	162.98
304.14	163.00
304.51	163.10
304.87	162.61
305.24	162.77
305.60	163.33
305.97	162.77
306.33	163.23
306.70	162.46
307.06	162.84
307.43	163.96
307.79	162.90
308.16	162.50
308.52	162.71
308.88	163.20
309.25	162.96
309.61	162.88
309.98	162.69
310.34	162.89
310.71	162.80
311.07	162.84
311.44	163.64
311.80	162.64
312.16	162.85
312.53	162.80
312.89	162.87
313.26	162.88
313.62	162.73
313.98	162.61
314.35	162.79
314.71	163.84
315.08	163.13
315.44	163.24
315.80	162.74
316.17	163.31
316.53	165.37
316.90	163.02
317.26	163.03
317.62	163.08
317.99	162.72
318.35	163.21
318.72	163.05
319.08	162.61
319.44	163.01
319.81	162.73
320.17	162.74
320.53	163.41
320.90	162.67
321.26	162.89
321.62	163.52
321.99	163.13
322.35	163.09
322.72	162.87
323.08	162.32
323.44	162.95
323.81	163.08
324.17	162.51
324.53	162.99
324.90	163.26
325.26	162.73
325.62	163.12
325.99	162.71
326.35	163.51
326.71	162.70
327.08	162.98
327.44	162.90
327.80	163.20
328.16	163.47
328.53	162.52
328.89	162.50
329.25	162.92
329.62	163.08
329.98	163.23
330.34	162.93
330.71	163.04
331.07	163.24
331.43	163.32
331.79	163.08
332.16	162.86
332.52	162.75
332.88	162.45
333.24	163.08
333.61	162.97
333.97	163.25
334.33	162.58
334.70	162.85
335.06	162.56
335.42	162.83
335.78	164.59
336.15	163.57
336.51	163.16
336.87	162.81
337.23	163.38
337.60	162.74
337.96	162.77
338.32	163.13
338.68	163.21
339.04	163.28
339.41	162.97
339.77	163.54
340.13	162.75
340.49	162.63
340.86	162.99
341.22	163.00
341.58	163.37
341.94	163.04
342.30	162.81
342.67	162.88
343.03	163.17
343.39	163.23
343.75	162.78
344.11	163.48
344.48	162.98
344.84	163.17
345.20	163.08
345.56	162.76
345.92	163.14
346.28	162.82
346.65	163.93
347.01	163.97
347.37	163.44
347.73	163.32
348.09	163.39
348.45	162.88
348.82	163.75
349.18	162.97
349.54	162.92
349.90	162.95
350.26	162.64
350.62	163.26
350.98	163.45
351.35	162.97
351.71	163.02
352.07	162.79
352.43	162.71
352.79	163.13
353.15	163.32
353.51	163.93
353.87	162.80
354.24	163.04
354.60	162.97
354.96	162.98
355.32	163.39
355.68	163.12
356.04	163.09
356.40	163.57
356.76	162.99
357.12	163.06
357.48	163.13
357.85	163.77
358.21	162.79
358.57	163.03
358.93	162.89
359.29	163.70
359.65	163.03
360.01	163.43
360.37	163.46
360.73	163.65
361.09	163.42
361.45	162.81
361.81	163.30
362.17	163.19
362.53	163.46
362.89	163.24
363.25	163.44
363.62	164.00
363.98	163.34
364.34	163.45
364.70	163.07
365.06	163.53
365.42	163.33
365.78	163.37
366.14	163.34
366.50	163.26
366.86	164.33
367.22	163.38
367.58	163.58
367.94	163.46
368.30	163.05
368.66	163.05
369.02	164.22
369.38	163.25
369.74	163.31
370.10	163.89
370.46	165.24
370.82	163.32
371.18	163.51
371.54	163.46
371.90	163.45
372.26	163.73
372.62	163.72
372.98	163.56
373.33	164.01
373.69	163.35
374.05	163.65
374.41	163.98
374.77	163.82
375.13	163.52
375.49	164.26
375.85	164.41
376.21	163.77
376.57	164.24
376.93	164.51
377.29	164.23
377.65	164.12
378.01	164.61
378.37	164.74
378.73	164.49
379.08	164.56
379.44	164.71
379.80	164.59
380.16	164.80
380.52	165.34
380.88	164.92
381.24	164.84
381.60	164.61
381.96	165.20
382.32	165.47
382.67	164.88
383.03	165.10
383.39	165.23
383.75	165.75
384.11	166.02
384.47	166.51
384.83	166.28
385.19	166.00
385.54	166.12
385.90	166.62
386.26	166.50
386.62	167.14
386.98	166.77
387.34	166.94
387.70	166.77
388.05	167.86
388.41	167.86
388.77	168.28
389.13	168.07
389.49	168.25
389.85	167.94
390.20	168.86
390.56	168.78
390.92	169.74
391.28	169.17
391.64	169.87
391.99	170.33
392.35	170.11
392.71	170.28
393.07	170.69
393.43	171.08
393.78	171.48
394.14	171.43
394.50	172.18
394.86	172.76
395.22	172.55
395.57	172.67
395.93	173.52
396.29	173.89
396.65	173.48
397.00	174.95
397.36	175.17
397.72	175.07
398.08	174.75
398.43	175.35
398.79	175.60
399.15	175.74
399.51	177.30
399.86	176.63
400.22	177.48
400.58	177.15
400.94	177.86
401.29	178.60
401.65	179.13
402.01	179.26
402.37	179.63
402.72	180.35
403.08	181.27
403.44	181.97
403.79	181.63
404.15	181.43
404.51	182.34
404.86	183.21
405.22	183.43
405.58	183.81
405.94	185.52
406.29	184.89
406.65	185.35
407.01	185.58
407.36	186.85
407.72	186.64
408.08	187.43
408.43	187.87
408.79	188.92
409.15	188.99
409.50	189.27
409.86	189.47
410.22	190.28
410.57	190.74
410.93	191.85
411.29	194.27
411.64	191.93
412.00	193.60
412.35	194.55
412.71	194.19
413.07	196.01
413.42	195.46
413.78	197.32
414.14	196.95
414.49	197.44
414.85	198.86
415.20	200.72
415.56	201.06
415.92	201.44
416.27	201.28
416.63	203.60
416.98	203.32
417.34	205.18
417.70	204.80
418.05	205.92
418.41	206.69
418.76	208.04
419.12	207.55
419.47	209.45
419.83	208.74
420.19	211.53
420.54	212.43
420.90	211.93
421.25	212.52
421.61	213.83
421.96	213.39
422.32	216.80
422.67	217.06
423.03	217.18
423.39	218.10
423.74	219.93
424.10	220.67
424.45	221.63
424.81	221.16
425.16	222.83
425.52	224.42
425.87	224.53
426.23	225.19
426.58	225.57
426.94	229.17
427.29	231.50
427.65	230.20
428.00	230.88
428.36	232.77
428.71	233.69
429.07	234.13
429.42	235.75
429.78	236.23
430.13	238.72
430.49	238.00
430.84	240.16
431.19	241.57
431.55	240.81
431.90	243.30
432.26	244.44
432.61	245.79
432.97	247.07
433.32	249.71
433.68	249.84
434.03	250.61
434.39	252.08
434.74	252.21
435.09	253.94
435.45	255.89
435.80	257.64
436.16	255.86
436.51	258.29
436.86	260.41
437.22	261.64
437.57	266.38
437.93	266.85
438.28	268.01
438.63	267.66
438.99	270.28
439.34	273.14
439.70	270.97
440.05	270.60
440.40	276.44
440.76	276.32
441.11	278.02
441.47	285.13
441.82	283.91
442.17	283.71
442.53	285.60
442.88	285.22
443.23	288.23
443.59	287.54
443.94	292.02
444.29	291.54
444.65	294.13
445.00	294.80
445.35	296.23
445.71	297.99
446.06	300.60
446.41	298.31
446.77	300.46
447.12	304.96
447.47	304.77
447.83	309.96
448.18	309.49
448.53	305.38
448.89	309.80
449.24	312.85
449.59	320.00
449.94	316.58
450.30	314.58
450.65	317.42
451.00	326.05
451.36	326.24
451.71	324.71
452.06	328.48
452.41	330.63
452.77	330.88
453.12	338.10
453.47	339.43
453.82	341.71
454.18	331.80
454.53	341.08
454.88	341.28
455.23	346.80
455.59	341.27
455.94	349.19
456.29	352.83
456.64	348.41
457.00	349.03
457.35	358.28
457.70	353.51
458.05	361.89
458.40	366.67
458.76	371.62
459.11	370.85
459.46	366.47
459.81	369.12
460.16	371.24
460.52	382.74
460.87	379.45
461.22	382.50
461.57	386.19
461.92	383.20
462.28	390.54
462.63	399.11
462.98	398.04
463.33	402.37
463.68	406.69
464.03	403.39
464.38	410.62
464.74	408.07
465.09	410.97
465.44	422.64
465.79	425.14
466.14	421.90
466.49	432.83
466.84	434.67
467.20	441.20
467.55	445.34
467.90	448.64
468.25	448.76
468.60	458.74
468.95	452.94
469.30	457.52
469.65	466.67
470.00	469.53
470.36	476.97
470.71	488.62
471.06	489.46
471.41	485.84
471.76	496.54
472.11	499.64
472.46	505.49
472.81	510.16
473.16	518.85
473.51	518.88
473.86	525.14
474.21	531.01
474.56	541.72
474.91	542.92
475.26	545.66
475.62	552.12
475.97	565.19
476.32	560.02
476.67	564.74
477.02	576.07
477.37	584.94
477.72	592.11
478.07	593.20
478.42	594.74
478.77	604.10
479.12	619.99
479.47	617.92
479.82	621.90
480.17	634.22
480.52	644.73
480.87	645.71
481.22	645.20
481.57	653.93
481.92	650.31
482.27	666.05
482.62	676.91
482.97	675.83
483.32	683.30
483.67	682.07
484.02	689.76
484.36	693.79
484.71	705.36
485.06	710.37
485.41	714.00
485.76	725.81
486.11	727.84
486.46	729.47
486.81	734.78
487.16	739.63
487.51	749.61
487.86	756.59
488.21	763.58
488.56	769.65
488.91	771.95
489.25	782.84
489.60	788.53
489.95	792.32
490.30	799.28
490.65	807.53
491.00	816.17
491.35	818.85
491.70	819.99
492.05	831.21
492.39	840.26
492.74	842.22
493.09	853.15
493.44	855.45
493.79	862.29
494.14	870.53
494.49	873.78
494.83	881.51
495.18	890.06
495.53	894.36
495.88	906.83
496.23	916.07
496.58	916.45
496.92	923.25
497.27	934.02
497.62	941.36
497.97	942.23
498.32	951.97
498.67	956.56
499.01	967.27
499.36	972.80
499.71	979.52
500.06	982.39
500.41	993.60
500.75	1000.46
501.10	1005.36
501.45	1011.62
501.80	1015.60
502.14	1019.44
502.49	1026.94
502.84	1028.42
503.19	1043.05
503.53	1044.60
503.88	1052.61
504.23	1057.06
504.58	1059.37
504.92	1068.58
505.27	1069.97
505.62	1078.52
505.97	1079.67
506.31	1080.99
506.66	1092.76
507.01	1093.45
507.36	1101.10
507.70	1099.68
508.05	1106.31
508.40	1107.06
508.74	1112.25
509.09	1111.88
509.44	1112.36
509.79	1115.84
510.13	1118.28
510.48	1119.92
510.83	1123.83
511.17	1123.49
511.52	1126.49
511.87	1129.67
512.21	1130.74
512.56	1132.06
512.91	1133.86
513.25	1142.85
513.60	1138.68
513.95	1144.79
514.29	1143.92
514.64	1148.90
514.98	1149.85
515.33	1147.84
515.68	1154.61
516.02	1156.90
516.37	1155.76
516.72	1156.26
517.06	1167.51
517.41	1169.16
517.75	1163.27
518.10	1169.48
518.45	1169.24
518.79	1173.77
519.14	1174.80
519.48	1177.26
519.83	1175.86
520.18	1173.75
520.52	1175.65
520.87	1183.32
521.21	1180.13
521.56	1177.52
521.90	1176.26
522.25	1181.09
522.60	1178.59
522.94	1184.89
523.29	1187.75
523.63	1180.60
523.98	1181.77
524.32	1183.10
524.67	1182.69
525.01	1175.79
525.36	1175.65
525.70	1181.59
526.05	1185.77
526.39	1173.63
526.74	1175.53
527.08	1175.64
527.43	1172.84
527.77	1169.82
528.12	1171.32
528.46	1167.70
528.81	1168.09
529.15	1165.90
529.50	1166.19
529.84	1157.83
530.19	1159.34
530.53	1151.03
530.88	1143.33
531.22	1150.47
531.57	1142.37
531.91	1137.73
532.26	1132.69
532.60	1128.14
532.94	1122.00
533.29	1119.64
533.63	1115.41
533.98	1107.75
534.32	1106.49
534.67	1101.11
535.01	1092.58
535.35	1085.76
535.70	1076.47
536.04	1070.47
536.39	1067.66
536.73	1058.82
537.07	1052.79
537.42	1048.97
537.76	1041.66
538.11	1031.88
538.45	1027.51
538.79	1019.84
539.14	1015.74
539.48	1007.47
539.82	1002.12
540.17	999.17
540.51	994.78
540.85	986.20
541.20	980.78
541.54	975.96
541.89	971.48
542.23	968.40
542.57	967.83
542.92	963.69
543.26	961.06
543.60	966.38
543.94	962.43
544.29	961.51
544.63	954.33
544.97	961.81
545.32	961.74
545.66	960.20
546.00	960.22
546.35	964.02
546.69	966.62
547.03	966.20
547.37	967.55
547.72	967.82
548.06	976.40
548.40	975.59
548.75	980.72
549.09	983.87
549.43	987.97
549.77	992.90
550.12	991.51
550.46	1003.24
550.80	1003.41
551.14	1013.95
551.49	1019.56
551.83	1031.21
552.17	1030.68
552.51	1035.86
552.85	1044.13
553.20	1047.69
553.54	1059.36
553.88	1067.52
554.22	1073.56
554.56	1092.20
554.91	1098.04
555.25	1102.84
555.59	1116.69
555.93	1122.58
556.27	1130.44
556.62	1142.15
556.96	1154.27
557.30	1158.86
557.64	1169.46
557.98	1178.31
558.32	1191.99
558.67	1200.79
559.01	1212.51
559.35	1215.92
559.69	1229.03
560.03	1241.81
560.37	1254.65
560.71	1259.31
561.05	1267.83
561.40	1268.60
561.74	1285.49
562.08	1288.22
562.42	1296.61
562.76	1311.94
563.10	1315.74
563.44	1321.33
563.78	1327.03
564.12	1335.88
564.46	1339.86
564.81	1343.01
565.15	1349.91
565.49	1350.11
565.83	1360.43
566.17	1357.37
566.51	1359.12
566.85	1362.86
567.19	1366.53
567.53	1369.73
567.87	1377.37
568.21	1377.32
568.55	1370.52
568.89	1375.12
569.23	1377.07
569.57	1374.44
569.91	1373.90
570.25	1367.29
570.59	1372.14
570.93	1372.09
571.27	1368.74
571.61	1364.25
571.95	1366.83
572.29	1363.08
572.63	1365.60
572.97	1363.03
573.31	1353.65
573.65	1349.10
573.99	1345.88
574.33	1340.60
574.67	1340.16
575.01	1330.06
575.35	1327.80
575.69	1323.84
576.03	1322.94
576.37	1317.74
576.71	1313.77
577.05	1304.27
577.39	1296.16
577.73	1293.72
578.06	1292.03
578.40	1283.27
578.74	1272.97
579.08	1269.48
579.42	1265.04
579.76	1252.31
580.10	1250.80
580.44	1242.59
580.78	1237.28
581.12	1228.00
581.45	1224.66
581.79	1219.52
582.13	1204.35
582.47	1208.34
582.81	1195.00
583.15	1194.17
583.49	1184.82
583.83	1178.80
584.16	1171.35
584.50	1170.49
584.84	1168.22
585.18	1157.44
585.52	1149.61
585.86	1150.79
586.19	1141.40
586.53	1137.82
586.87	1130.94
587.21	1118.31
587.55	1122.65
587.88	1119.21
588.22	1108.46
588.56	1103.40
588.90	1094.41
589.24	1087.48
589.57	1079.60
589.91	1076.39
590.25	1064.76
590.59	1055.91
590.92	1052.19
591.26	1045.68
591.60	1033.57
591.94	1026.73
592.27	1018.35
592.61	1006.59
592.95	999.57
593.29	992.28
593.62	982.02
593.96	970.59
594.30	963.90
594.64	951.70
594.97	940.98
595.31	927.38
595.65	913.21
595.98	899.23
596.32	882.56
596.66	872.46
597.00	858.15
597.33	844.94
597.67	825.13
598.01	812.73
598.34	797.24
598.68	780.54
599.02	761.70
599.35	746.28
599.69	736.25
600.03	720.73
600.36	706.83
600.70	695.67
601.03	681.23
601.37	673.47
601.71	661.73
602.04	647.94
602.38	633.80
602.72	625.76
603.05	614.84
603.39	601.73
603.72	590.63
604.06	579.51
604.40	568.77
604.73	555.66
605.07	545.77
605.40	533.05
605.74	522.07
606.08	510.17
606.41	498.21
606.75	488.72
607.08	475.72
607.42	465.12
607.75	454.80
608.09	443.60
608.42	431.88
608.76	420.83
609.10	411.45
609.43	399.48
609.77	388.22
610.10	379.39
610.44	369.46
610.77	360.02
611.11	351.67
611.44	341.76
611.78	332.61
612.11	324.56
612.45	316.55
612.78	308.80
613.12	302.06
613.45	295.59
613.79	286.99
614.12	281.52
614.46	275.80
614.79	269.41
615.13	264.38
615.46	259.60
615.79	255.18
616.13	250.51
616.46	245.81
616.80	242.16
617.13	239.16
617.47	235.92
617.80	232.38
618.13	230.06
618.47	226.81
618.80	225.58
619.14	222.17
619.47	219.89
619.81	217.76
620.14	216.25
620.47	214.40
620.81	212.69
621.14	211.07
621.47	209.74
621.81	208.27
622.14	207.34
622.48	205.37
622.81	204.50
623.14	203.67
623.48	202.93
623.81	201.71
624.14	201.83
624.48	200.37
624.81	199.48
625.14	199.64
625.48	199.32
625.81	198.82
626.14	198.69
626.48	198.68
626.81	199.60
627.14	198.57
627.48	199.37
627.81	199.68
628.14	201.00
628.47	203.10
628.81	201.86
629.14	203.00
629.47	205.07
629.81	206.77
630.14	207.84
630.47	209.46
630.80	211.77
631.14	214.13
631.47	217.24
631.80	218.30
632.13	221.52
632.47	224.68
632.80	228.24
633.13	232.30
633.46	235.74
633.79	240.24
634.13	244.81
634.46	249.65
634.79	255.95
635.12	260.21
635.45	266.64
635.79	272.16
636.12	279.25
636.45	286.26
636.78	292.41
637.11	300.29
637.45	307.50
637.78	314.95
638.11	324.18
638.44	332.28
638.77	341.24
639.10	350.76
639.44	358.07
639.77	368.39
640.10	377.25
640.43	386.12
640.76	396.36
641.09	404.63
641.42	414.87
641.75	423.98
642.08	434.08
642.42	443.60
642.75	451.29
643.08	462.01
643.41	471.16
643.74	479.87
644.07	487.81
644.40	496.08
644.73	504.45
645.06	512.96
645.39	522.54
645.72	530.75
646.05	534.65
646.38	543.42
646.72	551.33
647.05	557.29
647.38	564.25
647.71	569.75
648.04	574.59
648.37	579.35
648.70	581.68
649.03	589.18
649.36	591.39
649.69	593.13
650.02	595.74
650.35	598.54
650.68	599.70
651.01	596.33
651.34	598.42
651.67	594.78
652.00	598.32
652.33	590.10
652.66	588.31
652.99	583.88
653.31	581.33
653.64	572.96
653.97	568.69
654.30	562.64
654.63	552.84
654.96	543.84
655.29	537.59
655.62	526.34
655.95	519.30
656.28	508.56
656.61	498.89
656.94	489.71
657.27	480.24
657.60	470.70
657.92	462.69
658.25	453.65
658.58	444.59
658.91	435.89
659.24	427.73
659.57	419.56
659.90	411.18
660.23	403.29
660.55	397.93
660.88	390.93
661.21	382.70
661.54	376.80
661.87	370.77
662.20	363.63
662.52	357.84
662.85	352.95
663.18	345.23
663.51	339.29
663.84	332.77
664.16	327.78
664.49	324.73
664.82	319.48
665.15	314.64
665.48	309.99
665.80	306.11
666.13	302.12
666.46	297.98
666.79	294.20
667.12	290.94
667.44	286.83
667.77	283.83
668.10	280.93
668.43	277.30
668.75	274.57
669.08	272.03
669.41	268.70
669.73	267.47
670.06	264.94
670.39	263.41
670.72	261.12
671.04	258.66
671.37	256.86
671.70	255.52
672.02	253.85
672.35	252.65
672.68	250.39
673.00	250.08
673.33	248.44
673.66	246.75
673.98	245.79
674.31	245.23
674.64	243.63
674.96	243.02
675.29	242.24
675.62	240.64
675.94	240.98
676.27	240.36
676.60	240.01
676.92	239.45
677.25	238.99
677.58	238.64
677.90	238.02
678.23	237.62
678.55	236.96
678.88	237.10
679.21	235.83
679.53	236.37
679.86	235.49
680.18	233.67
680.51	232.86
680.83	232.62
681.16	232.72
681.49	231.50
681.81	230.09
682.14	230.00
682.46	228.64
682.79	228.46
683.11	227.98
683.44	226.03
683.76	227.13
684.09	226.01
684.41	225.65
684.74	224.69
685.06	224.13
685.39	223.05
685.71	222.42
686.04	222.60
686.36	222.56
686.69	221.65
687.01	220.94
687.34	221.03
687.66	219.64
687.99	219.17
688.31	218.53
688.64	218.54
688.96	216.71
689.29	216.17
689.61	216.14
689.93	214.57
690.26	213.33
690.58	212.56
690.91	213.47
691.23	211.37
691.56	209.78
691.88	208.27
692.20	207.35
692.53	206.23
692.85	204.73
693.18	203.69
693.50	201.72
693.82	200.64
694.15	198.91
694.47	197.24
694.79	195.37
695.12	194.16
695.44	192.64
695.76	190.83
696.09	189.46
696.41	188.14
696.73	187.89
697.06	185.37
697.38	183.52
697.70	182.34
698.03	180.98
698.35	179.75
698.67	178.46
699.00	177.03
699.32	176.20
699.64	175.54
699.97	173.95
700.29	172.52
700.61	171.93
700.93	171.29
701.26	169.91
701.58	169.78
701.90	168.46
702.22	168.15
702.55	167.78
702.87	166.56
703.19	166.29
703.51	166.55
703.84	165.74
704.16	165.50
704.48	164.94
704.80	164.80
705.13	164.51
705.45	165.22
705.77	163.47
706.09	164.73
706.41	163.50
706.74	163.63
707.06	163.54
707.38	162.87
707.70	162.81
708.02	162.87
708.34	162.57
708.67	162.90
708.99	162.49
709.31	162.67
709.63	162.20
709.95	162.41
710.27	162.33
710.59	162.47
710.92	162.70
711.24	162.59
711.56	162.07
711.88	161.81
712.20	162.12
712.52	161.86
712.84	161.72
713.16	161.38
713.48	162.11
713.80	161.21
714.12	162.03
714.45	161.53
714.77	162.03
715.09	161.79
715.41	161.58
715.73	162.10
716.05	161.33
716.37	161.49
716.69	161.60
717.01	161.63
717.33	162.69
717.65	161.65
717.97	161.87
718.29	161.69
718.61	161.59
718.93	161.60
719.25	161.60
719.57	161.38
719.89	161.48
720.21	160.93
720.53	161.43
720.85	161.74
721.17	161.53
721.49	161.23
721.81	161.11
722.13	161.09
722.45	161.45
722.77	161.73
723.09	161.24
723.41	161.23
723.72	161.24
724.04	161.48
724.36	161.54
724.68	161.18
725.00	162.02
725.32	161.60
725.64	161.42
725.96	161.15
726.28	160.85
726.60	160.91
726.91	161.12
727.23	161.09
727.55	161.69
727.87	161.06
728.19	160.94
728.51	161.46
728.83	161.34
729.14	161.59
729.46	161.28
729.78	161.61
730.10	161.22
730.42	160.64
730.74	161.04
731.05	160.78
731.37	161.14
731.69	161.21
732.01	161.11
732.33	160.82
732.64	161.32
732.96	161.05
733.28	160.56
733.60	161.16
733.92	160.85
734.23	160.62
734.55	161.46
734.87	161.24
735.19	161.54
735.50	160.96
735.82	160.10
736.14	160.95
736.45	160.91
736.77	161.22
737.09	160.85
737.41	161.24
737.72	161.46
738.04	161.32
738.36	160.94
738.67	161.46
738.99	160.89
739.31	161.00
739.63	161.13
739.94	160.97
740.26	160.82
740.58	161.21
740.89	161.31
741.21	160.81
741.52	160.64
741.84	160.74
742.16	160.66
742.47	161.29
742.79	160.77
743.11	161.32
743.42	161.28
743.74	167.14
744.05	161.19
744.37	160.79
744.69	161.01
745.00	160.37
745.32	161.07
745.63	161.05
745.95	160.59
746.27	160.82
746.58	160.73
746.90	160.87
747.21	160.65
747.53	161.33
747.84	160.78
748.16	160.87
748.47	160.97
748.79	160.52
749.10	160.88
749.42	160.54
749.74	160.86
750.05	161.06
750.37	160.57
750.68	160.52
751.00	160.91
751.31	160.73
751.62	160.62
751.94	160.32
752.25	160.70
752.57	160.92
752.88	161.45
753.20	160.06
753.51	160.74
753.83	161.09
754.14	160.94
754.46	160.70
754.77	160.58
755.08	160.20
755.40	160.37
755.71	161.14
756.03	160.41
756.34	160.70
756.66	160.26
756.97	161.29
757.28	160.48
757.60	160.61
757.91	160.47
758.22	160.59
758.54	160.22
758.85	160.35
759.17	160.41
759.48	160.47
759.79	159.91
760.11	160.28
760.42	160.46
760.73	160.55
761.05	160.49
761.36	160.55
761.67	160.51
761.99	160.35
762.30	160.70
762.61	160.53
762.92	160.73
763.24	161.07
763.55	160.64
763.86	160.59
764.18	160.53
764.49	160.22
764.80	160.24
765.11	160.71
765.43	160.48
765.74	160.87
766.05	160.44
766.36	160.91
766.68	160.73
766.99	160.07
767.30	160.47
767.61	160.56
767.93	160.84
768.24	160.64
768.55	160.34
768.86	160.66
769.17	159.76
769.49	160.26
769.80	160.49
770.11	160.48
770.42	159.93
770.73	160.66
771.04	160.89
771.36	160.32
771.67	160.17
771.98	160.37
772.29	160.85
772.60	160.72
772.91	160.24
773.22	160.47
773.54	160.38
773.85	160.85
774.16	160.67
774.47	160.56
774.78	160.81
775.09	160.43
775.40	160.25
775.71	160.43
776.02	160.42
776.33	160.33
776.64	160.16
776.96	160.18
777.27	160.21
777.58	160.12
777.89	160.16
778.20	160.48
778.51	159.91
778.82	160.32
779.13	161.26
779.44	160.67
779.75	160.00
780.06	160.07
780.37	160.03
780.68	160.89
780.99	160.97
781.30	160.67
781.61	160.35
781.92	160.07
782.23	160.20
782.54	159.99
782.85	160.31
783.16	160.32
783.47	159.96
783.78	160.55
784.08	160.06
784.39	159.91
784.70	160.73
785.01	159.99
785.32	160.00
785.63	160.86
785.94	160.06
786.25	159.79
786.56	160.24
786.87	160.09
787.18	160.40
787.48	160.01
787.79	159.97
788.10	160.31
788.41	160.11
788.72	160.41
789.03	160.44
789.34	160.07
789.64	160.55
789.95	160.33
790.26	159.81
790.57	160.08
790.88	160.19
791.19	160.24
791.49	160.62
791.80	162.16
792.11	160.57
792.42	159.89
792.73	159.59
793.03	159.78
793.34	160.23
793.65	160.72
793.96	160.56
794.27	160.27
794.57	159.99
794.88	160.08
795.19	160.28
795.50	160.10
795.80	160.10
796.11	159.79
796.42	160.01
796.72	160.14
797.03	160.07
797.34	160.52
797.65	160.03
797.95	161.16
798.26	159.83
798.57	159.67
798.87	160.56
799.18	159.55
799.49	160.23
799.79	159.78
800.10	160.16
800.41	160.19
800.71	159.57
801.02	159.74
801.33	159.70
801.63	159.93
801.94	159.46
802.24	160.95
802.55	160.40
802.86	160.04
803.16	159.99
803.47	160.30
803.77	160.03
804.08	160.58
804.39	159.77
804.69	160.31
805.00	159.88
805.30	159.66
805.61	159.67
805.91	159.99
806.22	160.50
806.53	161.68
806.83	159.69
807.14	160.20
807.44	159.81
807.75	159.99
808.05	160.61
808.36	160.28
808.66	160.23
808.97	159.93
809.27	160.41
809.58	160.64
809.88	160.20
810.19	160.08
810.49	160.05
810.80	159.76
811.10	160.04
811.41	160.38
811.71	160.66
812.01	159.86
812.32	159.92
812.62	160.63
812.93	160.33
813.23	160.09
813.54	159.54
813.84	160.00
814.14	159.94
814.45	159.18
814.75	159.90
815.06	160.92
815.36	160.06
815.66	160.61
815.97	159.62
816.27	160.30
816.58	159.99
816.88	159.61
817.18	160.39
817.49	159.97
817.79	160.16
818.09	159.76
818.40	159.71
818.70	159.57
819.00	160.23
819.31	159.87
819.61	160.05
819.91	160.29
820.21	159.95
820.52	159.90
820.82	160.11
821.12	159.76
821.43	160.09
821.73	160.18
822.03	159.89
822.33	159.90
822.64	160.03
822.94	160.55
823.24	159.50
823.54	159.83
823.85	159.82
824.15	159.76
824.45	160.26
824.75	159.76
825.05	160.38
825.36	159.80
825.66	160.47
825.96	159.94
826.26	159.96
826.56	159.49
826.87	160.04
827.17	160.26
827.47	159.93
827.77	159.99
828.07	160.41
828.37	160.19
828.67	159.71
828.98	160.23
829.28	160.35
829.58	159.87
829.88	159.77
830.18	161.34
830.48	160.96
830.78	159.91
831.08	160.24
831.38	160.69
831.69	160.23
831.99	160.14
832.29	160.10
832.59	159.32
832.89	160.14
833.19	159.77
833.49	159.85
833.79	160.05
834.09	162.11
834.39	159.30
834.69	159.32
834.99	159.99
835.29	159.79
835.59	159.99
835.89	160.47
836.19	159.71
836.49	160.47
836.79	159.88
837.09	160.13
837.39	159.67
837.69	160.09
837.99	160.02
838.29	160.03
838.59	159.98
838.89	159.83
839.19	160.47
839.49	159.71
839.79	159.87
840.09	160.04
840.39	160.02
840.68	160.09
840.98	159.41
841.28	159.64
841.58	159.66
841.88	159.93
842.18	159.53
842.48	159.95
842.78	160.43
843.08	161.23
843.37	160.07
843.67	160.32
843.97	160.07
844.27	159.51
844.57	160.11
844.87	160.11
845.16	159.71
845.46	159.48
845.76	159.79
846.06	159.56
846.36	159.52
846.66	159.74
846.95	159.87
847.25	160.31
847.55	159.83
847.85	159.63
848.14	160.15
848.44	159.91
848.74	159.78
849.04	160.50
849.33	159.88
849.63	159.56
849.93	159.60
850.23	159.83
850.52	159.56
850.82	159.85
851.12	159.60
851.42	159.54
851.71	159.67
852.01	159.67
852.31	160.09
852.60	159.66
852.90	160.08
853.20	159.95
853.49	159.79
853.79	159.66
854.09	160.34
854.38	161.01
854.68	159.72
854.98	160.22
855.27	159.75
855.57	159.43
855.86	159.98
856.16	160.14
856.46	160.09
856.75	159.69
857.05	159.74
857.34	159.56
857.64	159.56
857.94	160.96
858.23	159.62
858.53	160.39
858.82	160.03
859.12	160.04
859.41	160.01
859.71	159.44
860.01	159.77
860.30	159.85
860.60	159.79
860.89	161.96
861.19	160.26
861.48	159.58
861.78	159.77
862.07	160.13
862.37	159.98
862.66	160.16
862.96	160.05
863.25	159.97
863.55	160.12
863.84	159.47
864.13	159.56
864.43	160.15
864.72	160.15
865.02	159.78
865.31	159.53
865.61	160.11
865.90	159.94
866.19	160.52
866.49	159.61
866.78	159.76
867.08	159.96
867.37	159.70
867.66	160.06
867.96	159.80
868.25	160.65
868.55	160.14
868.84	159.72
869.13	160.10
869.43	159.74
869.72	159.33
870.01	160.21
870.31	159.64
870.60	160.17
870.89	159.59
871.19	160.33
871.48	160.24
871.77	159.70
872.07	160.06
872.36	159.99
872.65	159.75
872.94	159.46
873.24	160.05
873.53	160.09
873.82	159.77
874.11	160.35
874.41	159.48
874.70	160.15
>>>>>End Processed Spectral Data<<<<<
