SpectraSuite Data File
++++++++++++++++++++++++++++++++++++
Date: Tue Jun 09 17:27:36 BST 2015
User: mpfc3
Dark Spectrum Present: No
Reference Spectrum Present: No
Number of Sampled Component Spectra: 1
Spectrometers: USB2E3636
Integration Time (usec): 30000 (USB2E3636)
Spectra Averaged: 100 (USB2E3636)
Boxcar Smoothing: 0 (USB2E3636)
Correct for Electrical Dark: No (USB2E3636)
Strobe/Lamp Enabled: No (USB2E3636)
Correct for Detector Non-linearity: No (USB2E3636)
Correct for Stray Light: No (USB2E3636)
Number of Pixels in Processed Spectrum: 2048
>>>>>Begin Processed Spectral Data<<<<<
180.28	0.00
180.65	151.41
181.02	151.87
181.39	153.11
181.77	154.37
182.14	155.58
182.51	155.79
182.88	156.14
183.25	157.03
183.63	157.02
184.00	157.30
184.37	159.14
184.74	157.71
185.11	157.46
185.49	157.72
185.86	157.80
186.23	158.05
186.60	157.66
186.97	157.84
187.35	157.60
187.72	157.45
188.09	157.18
188.46	157.79
188.83	157.16
189.20	157.93
189.58	159.83
189.95	159.36
190.32	159.47
190.69	160.09
191.06	159.48
191.43	159.73
191.81	159.43
192.18	159.89
192.55	160.08
192.92	159.34
193.29	160.84
193.66	160.57
194.03	160.33
194.41	160.37
194.78	159.87
195.15	159.98
195.52	160.05
195.89	160.03
196.26	160.02
196.63	160.43
197.01	160.86
197.38	160.18
197.75	160.45
198.12	160.49
198.49	160.65
198.86	160.20
199.23	161.06
199.60	160.71
199.98	161.26
200.35	160.53
200.72	160.52
201.09	160.68
201.46	161.12
201.83	161.07
202.20	160.60
202.57	160.82
202.94	161.39
203.31	160.67
203.69	160.60
204.06	162.35
204.43	160.96
204.80	160.94
205.17	160.73
205.54	161.61
205.91	161.17
206.28	161.73
206.65	161.14
207.02	161.23
207.39	160.90
207.76	161.45
208.14	161.51
208.51	161.94
208.88	161.64
209.25	161.50
209.62	161.53
209.99	161.70
210.36	161.24
210.73	161.63
211.10	162.18
211.47	161.37
211.84	161.39
212.21	161.26
212.58	161.89
212.95	161.58
213.32	161.83
213.69	161.83
214.06	161.45
214.43	162.19
214.80	161.71
215.17	161.26
215.55	161.60
215.92	161.84
216.29	161.69
216.66	162.06
217.03	161.50
217.40	162.03
217.77	161.92
218.14	161.84
218.51	162.68
218.88	162.08
219.25	161.86
219.62	162.10
219.99	161.96
220.36	162.60
220.73	163.07
221.10	161.93
221.47	162.07
221.84	161.72
222.21	162.23
222.58	161.71
222.95	161.85
223.32	162.07
223.69	162.01
224.06	161.98
224.43	162.07
224.80	161.91
225.17	162.15
225.54	162.26
225.91	162.69
226.27	172.90
226.64	162.16
227.01	162.50
227.38	162.57
227.75	162.23
228.12	161.88
228.49	162.73
228.86	161.91
229.23	162.90
229.60	161.54
229.97	162.45
230.34	162.34
230.71	162.85
231.08	163.11
231.45	162.63
231.82	162.13
232.19	162.33
232.56	162.24
232.93	162.50
233.30	162.60
233.66	162.91
234.03	162.65
234.40	162.28
234.77	162.37
235.14	162.50
235.51	162.41
235.88	162.67
236.25	162.73
236.62	163.13
236.99	162.11
237.36	162.61
237.73	162.49
238.09	162.71
238.46	162.62
238.83	163.01
239.20	162.76
239.57	163.02
239.94	161.93
240.31	162.51
240.68	162.01
241.05	162.27
241.41	163.01
241.78	161.67
242.15	162.64
242.52	163.02
242.89	162.34
243.26	162.49
243.63	162.41
244.00	163.30
244.36	162.77
244.73	162.06
245.10	163.02
245.47	162.82
245.84	162.50
246.21	162.84
246.58	163.32
246.94	163.31
247.31	162.52
247.68	162.37
248.05	162.52
248.42	162.09
248.79	163.10
249.15	162.91
249.52	162.17
249.89	162.45
250.26	163.41
250.63	162.92
251.00	163.28
251.36	162.61
251.73	162.25
252.10	163.70
252.47	163.13
252.84	162.80
253.20	162.51
253.57	162.34
253.94	162.63
254.31	162.90
254.68	162.42
255.05	162.77
255.41	162.90
255.78	162.66
256.15	163.05
256.52	163.77
256.88	162.30
257.25	162.60
257.62	162.61
257.99	162.98
258.36	163.45
258.72	162.83
259.09	162.64
259.46	163.27
259.83	162.84
260.19	162.74
260.56	162.44
260.93	163.13
261.30	162.38
261.67	162.69
262.03	163.34
262.40	162.77
262.77	163.06
263.14	162.59
263.50	162.87
263.87	162.60
264.24	162.71
264.61	162.73
264.97	162.69
265.34	162.90
265.71	162.84
266.07	162.90
266.44	162.37
266.81	162.99
267.18	162.45
267.54	162.92
267.91	163.59
268.28	162.79
268.64	163.15
269.01	162.53
269.38	162.93
269.75	162.83
270.11	162.90
270.48	162.70
270.85	163.31
271.21	163.03
271.58	162.97
271.95	163.00
272.32	163.66
272.68	162.72
273.05	162.99
273.42	162.75
273.78	163.19
274.15	162.74
274.52	162.73
274.88	162.92
275.25	163.25
275.62	162.83
275.98	163.16
276.35	163.26
276.72	164.37
277.08	163.17
277.45	162.89
277.82	162.91
278.18	162.77
278.55	162.51
278.92	163.05
279.28	163.18
279.65	163.14
280.01	163.46
280.38	163.01
280.75	162.53
281.11	163.56
281.48	162.75
281.85	163.47
282.21	163.05
282.58	162.63
282.95	163.41
283.31	162.95
283.68	162.87
284.04	162.81
284.41	163.63
284.78	162.53
285.14	165.40
285.51	164.19
285.87	162.78
286.24	163.15
286.61	162.86
286.97	162.65
287.34	162.62
287.70	163.20
288.07	163.17
288.44	162.79
288.80	163.31
289.17	163.33
289.53	162.93
289.90	163.62
290.26	163.48
290.63	162.76
291.00	162.67
291.36	163.19
291.73	162.73
292.09	163.04
292.46	162.78
292.82	163.15
293.19	163.04
293.56	163.03
293.92	163.42
294.29	162.85
294.65	162.75
295.02	163.02
295.38	162.67
295.75	163.30
296.11	163.37
296.48	163.31
296.84	162.96
297.21	162.92
297.57	163.03
297.94	163.59
298.30	163.02
298.67	162.93
299.04	163.03
299.40	162.76
299.77	162.81
300.13	162.79
300.50	163.29
300.86	162.96
301.23	163.65
301.59	163.42
301.96	163.33
302.32	162.69
302.69	163.30
303.05	163.44
303.42	163.54
303.78	162.89
304.14	163.53
304.51	163.12
304.87	162.86
305.24	163.05
305.60	162.97
305.97	163.58
306.33	163.48
306.70	162.94
307.06	162.92
307.43	164.25
307.79	162.86
308.16	163.14
308.52	163.17
308.88	163.23
309.25	163.24
309.61	163.53
309.98	163.23
310.34	163.12
310.71	163.61
311.07	163.12
311.44	163.01
311.80	162.90
312.16	163.13
312.53	163.02
312.89	163.50
313.26	163.43
313.62	162.78
313.98	163.60
314.35	163.06
314.71	163.92
315.08	163.76
315.44	163.46
315.80	163.21
316.17	162.94
316.53	165.63
316.90	163.43
317.26	162.93
317.62	163.30
317.99	162.60
318.35	163.58
318.72	163.42
319.08	163.18
319.44	163.39
319.81	163.57
320.17	163.59
320.53	162.95
320.90	162.95
321.26	163.21
321.62	163.85
321.99	163.27
322.35	163.99
322.72	163.25
323.08	163.07
323.44	163.30
323.81	163.21
324.17	163.00
324.53	163.30
324.90	163.62
325.26	163.25
325.62	163.18
325.99	163.02
326.35	163.62
326.71	163.14
327.08	163.13
327.44	163.35
327.80	163.47
328.16	164.54
328.53	163.28
328.89	163.35
329.25	163.50
329.62	163.00
329.98	163.51
330.34	163.14
330.71	162.83
331.07	162.99
331.43	163.56
331.79	163.62
332.16	162.97
332.52	163.14
332.88	163.17
333.24	163.36
333.61	163.53
333.97	163.40
334.33	163.37
334.70	163.07
335.06	162.81
335.42	163.29
335.78	164.78
336.15	163.25
336.51	164.24
336.87	163.36
337.23	163.34
337.60	163.44
337.96	163.58
338.32	162.92
338.68	163.23
339.04	163.26
339.41	163.31
339.77	163.53
340.13	163.47
340.49	163.23
340.86	163.55
341.22	162.92
341.58	163.03
341.94	163.73
342.30	163.22
342.67	163.27
343.03	163.23
343.39	163.58
343.75	163.42
344.11	162.83
344.48	163.53
344.84	163.85
345.20	163.46
345.56	163.45
345.92	163.26
346.28	163.15
346.65	164.67
347.01	163.44
347.37	163.16
347.73	163.60
348.09	163.60
348.45	163.07
348.82	164.20
349.18	163.14
349.54	163.66
349.90	163.52
350.26	163.70
350.62	163.24
350.98	163.93
351.35	163.53
351.71	163.71
352.07	163.31
352.43	163.29
352.79	163.39
353.15	163.73
353.51	164.22
353.87	163.18
354.24	163.73
354.60	162.98
354.96	162.76
355.32	163.57
355.68	163.84
356.04	163.54
356.40	163.39
356.76	163.76
357.12	163.48
357.48	163.71
357.85	163.64
358.21	164.13
358.57	163.03
358.93	163.50
359.29	163.84
359.65	163.60
360.01	163.37
360.37	163.55
360.73	163.90
361.09	163.42
361.45	163.34
361.81	163.58
362.17	163.81
362.53	163.71
362.89	163.56
363.25	163.67
363.62	164.02
363.98	163.44
364.34	163.97
364.70	163.30
365.06	163.83
365.42	163.43
365.78	163.62
366.14	163.96
366.50	163.82
366.86	163.83
367.22	163.97
367.58	163.94
367.94	163.98
368.30	163.80
368.66	163.68
369.02	164.85
369.38	163.24
369.74	163.97
370.10	163.91
370.46	165.32
370.82	164.05
371.18	164.32
371.54	163.77
371.90	163.76
372.26	163.72
372.62	164.41
372.98	163.69
373.33	164.28
373.69	163.54
374.05	164.18
374.41	163.79
374.77	164.23
375.13	164.14
375.49	164.08
375.85	163.96
376.21	164.92
376.57	163.85
376.93	164.43
377.29	164.34
377.65	164.25
378.01	165.20
378.37	164.86
378.73	164.80
379.08	165.04
379.44	164.98
379.80	165.17
380.16	165.18
380.52	165.20
380.88	165.28
381.24	165.40
381.60	165.24
381.96	165.96
382.32	165.82
382.67	165.94
383.03	165.66
383.39	165.51
383.75	166.18
384.11	166.00
384.47	165.88
384.83	166.81
385.19	166.30
385.54	166.31
385.90	166.77
386.26	166.81
386.62	166.99
386.98	167.19
387.34	167.27
387.70	167.59
388.05	167.56
388.41	167.32
388.77	168.73
389.13	168.70
389.49	169.23
389.85	169.03
390.20	168.68
390.56	169.56
390.92	169.78
391.28	170.27
391.64	169.96
391.99	170.35
392.35	170.45
392.71	170.57
393.07	170.83
393.43	171.14
393.78	171.43
394.14	172.24
394.50	172.54
394.86	172.80
395.22	172.47
395.57	172.62
395.93	173.91
396.29	174.06
396.65	173.78
397.00	174.43
397.36	175.37
397.72	174.76
398.08	175.86
398.43	175.50
398.79	176.57
399.15	176.45
399.51	177.63
399.86	177.27
400.22	176.94
400.58	177.95
400.94	177.84
401.29	179.24
401.65	179.33
402.01	179.45
402.37	180.11
402.72	181.17
403.08	181.93
403.44	181.85
403.79	181.49
404.15	182.04
404.51	182.18
404.86	183.12
405.22	183.66
405.58	184.36
405.94	184.47
406.29	185.43
406.65	185.75
407.01	185.91
407.36	186.75
407.72	187.13
408.08	187.34
408.43	188.20
408.79	188.78
409.15	188.72
409.50	189.81
409.86	189.79
410.22	190.77
410.57	191.54
410.93	192.03
411.29	194.08
411.64	192.59
412.00	194.48
412.35	195.11
412.71	195.30
413.07	195.66
413.42	196.53
413.78	197.24
414.14	197.75
414.49	198.93
414.85	199.00
415.20	200.99
415.56	201.72
415.92	201.15
416.27	201.73
416.63	203.23
416.98	203.58
417.34	204.91
417.70	205.17
418.05	205.76
418.41	206.48
418.76	208.15
419.12	207.82
419.47	209.38
419.83	208.63
420.19	210.92
420.54	212.18
420.90	212.85
421.25	213.15
421.61	214.88
421.96	213.67
422.32	216.58
422.67	217.24
423.03	217.35
423.39	219.21
423.74	220.53
424.10	220.38
424.45	221.89
424.81	221.77
425.16	223.06
425.52	224.30
425.87	224.80
426.23	226.57
426.58	225.64
426.94	229.27
427.29	230.66
427.65	231.35
428.00	230.51
428.36	233.11
428.71	233.73
429.07	233.19
429.42	235.22
429.78	236.61
430.13	238.90
430.49	238.51
430.84	240.97
431.19	241.02
431.55	240.53
431.90	243.72
432.26	244.09
432.61	245.99
432.97	246.88
433.32	248.72
433.68	249.82
434.03	250.19
434.39	252.16
434.74	252.75
435.09	254.73
435.45	254.42
435.80	257.98
436.16	256.09
436.51	259.10
436.86	261.07
437.22	262.32
437.57	266.82
437.93	267.27
438.28	267.88
438.63	267.79
438.99	269.21
439.34	273.12
439.70	270.80
440.05	270.78
440.40	275.97
440.76	277.71
441.11	278.33
441.47	284.39
441.82	283.42
442.17	284.02
442.53	285.01
442.88	285.53
443.23	288.24
443.59	286.92
443.94	291.83
444.29	290.91
444.65	293.53
445.00	294.28
445.35	295.80
445.71	298.14
446.06	300.56
446.41	298.80
446.77	301.00
447.12	304.83
447.47	304.84
447.83	310.18
448.18	309.72
448.53	305.49
448.89	309.87
449.24	311.30
449.59	320.29
449.94	316.47
450.30	315.12
450.65	318.53
451.00	325.93
451.36	325.89
451.71	325.09
452.06	328.50
452.41	331.76
452.77	330.44
453.12	337.88
453.47	338.73
453.82	341.53
454.18	330.75
454.53	341.58
454.88	341.02
455.23	347.12
455.59	342.46
455.94	348.62
456.29	353.80
456.64	348.58
457.00	348.87
457.35	358.34
457.70	353.07
458.05	362.05
458.40	367.07
458.76	370.92
459.11	371.00
459.46	366.11
459.81	368.07
460.16	370.82
460.52	381.91
460.87	378.76
461.22	381.99
461.57	386.26
461.92	382.22
462.28	390.07
462.63	399.06
462.98	397.53
463.33	402.13
463.68	405.89
464.03	403.81
464.38	410.67
464.74	408.34
465.09	410.98
465.44	422.16
465.79	425.70
466.14	420.74
466.49	431.81
466.84	434.23
467.20	440.63
467.55	445.32
467.90	448.24
468.25	451.22
468.60	459.01
468.95	452.66
469.30	457.62
469.65	465.02
470.00	467.85
470.36	476.54
470.71	488.23
471.06	489.00
471.41	485.16
471.76	496.36
472.11	499.05
472.46	505.05
472.81	508.84
473.16	516.59
473.51	517.49
473.86	524.88
474.21	530.06
474.56	541.46
474.91	543.48
475.26	545.16
475.62	551.70
475.97	565.40
476.32	558.41
476.67	564.30
477.02	574.95
477.37	583.31
477.72	590.72
478.07	593.35
478.42	593.30
478.77	602.34
479.12	617.29
479.47	616.00
479.82	621.10
480.17	633.40
480.52	645.35
480.87	644.22
481.22	642.83
481.57	652.79
481.92	649.11
482.27	663.43
482.62	675.36
482.97	676.22
483.32	681.79
483.67	682.24
484.02	687.87
484.36	691.87
484.71	703.86
485.06	709.06
485.41	711.56
485.76	724.73
486.11	723.47
486.46	728.21
486.81	735.18
487.16	736.41
487.51	748.20
487.86	755.42
488.21	761.14
488.56	770.07
488.91	769.59
489.25	781.95
489.60	786.73
489.95	790.97
490.30	799.73
490.65	805.83
491.00	813.66
491.35	815.91
491.70	816.91
492.05	829.36
492.39	838.63
492.74	841.51
493.09	851.82
493.44	855.49
493.79	861.14
494.14	868.49
494.49	872.16
494.83	877.18
495.18	889.67
495.53	894.04
495.88	907.49
496.23	914.22
496.58	912.72
496.92	920.24
497.27	932.76
497.62	940.58
497.97	938.53
498.32	950.41
498.67	952.91
499.01	965.48
499.36	970.16
499.71	976.78
500.06	979.50
500.41	992.72
500.75	998.08
501.10	1003.65
501.45	1007.97
501.80	1012.26
502.14	1020.16
502.49	1026.46
502.84	1026.61
503.19	1040.15
503.53	1040.69
503.88	1049.28
504.23	1054.08
504.58	1057.69
504.92	1063.99
505.27	1070.05
505.62	1075.02
505.97	1077.77
506.31	1079.91
506.66	1089.38
507.01	1092.13
507.36	1097.11
507.70	1098.68
508.05	1103.84
508.40	1106.57
508.74	1108.83
509.09	1108.76
509.44	1110.03
509.79	1114.11
510.13	1115.58
510.48	1117.13
510.83	1123.35
511.17	1122.24
511.52	1125.22
511.87	1127.03
512.21	1128.66
512.56	1130.03
512.91	1132.05
513.25	1139.21
513.60	1134.61
513.95	1142.73
514.29	1141.02
514.64	1147.05
514.98	1149.24
515.33	1148.47
515.68	1152.84
516.02	1158.03
516.37	1153.40
516.72	1154.44
517.06	1164.57
517.41	1165.40
517.75	1161.14
518.10	1166.38
518.45	1165.12
518.79	1168.15
519.14	1171.89
519.48	1172.98
519.83	1173.45
520.18	1172.02
520.52	1177.00
520.87	1179.35
521.21	1179.94
521.56	1175.42
521.90	1177.91
522.25	1179.27
522.60	1175.44
522.94	1182.28
523.29	1186.42
523.63	1179.66
523.98	1178.60
524.32	1181.72
524.67	1181.87
525.01	1173.62
525.36	1173.91
525.70	1178.71
526.05	1182.55
526.39	1170.02
526.74	1172.87
527.08	1171.30
527.43	1171.66
527.77	1165.92
528.12	1168.30
528.46	1165.85
528.81	1165.32
529.15	1161.37
529.50	1163.55
529.84	1156.68
530.19	1156.51
530.53	1148.70
530.88	1142.26
531.22	1147.41
531.57	1140.03
531.91	1136.08
532.26	1131.01
532.60	1125.90
532.94	1118.17
533.29	1120.57
533.63	1113.89
533.98	1106.21
534.32	1104.56
534.67	1100.44
535.01	1088.30
535.35	1081.99
535.70	1075.13
536.04	1068.73
536.39	1063.71
536.73	1056.70
537.07	1050.24
537.42	1045.71
537.76	1039.63
538.11	1027.67
538.45	1025.20
538.79	1018.13
539.14	1014.43
539.48	1004.85
539.82	1000.03
540.17	997.94
540.51	991.50
540.85	983.81
541.20	976.82
541.54	973.78
541.89	970.81
542.23	966.24
542.57	965.24
542.92	962.31
543.26	960.60
543.60	963.64
543.94	961.29
544.29	958.46
544.63	951.06
544.97	959.07
545.32	957.65
545.66	958.79
546.00	960.29
546.35	959.83
546.69	963.69
547.03	965.02
547.37	966.24
547.72	964.97
548.06	975.08
548.40	973.45
548.75	978.71
549.09	982.00
549.43	987.35
549.77	991.41
550.12	989.76
550.46	1000.62
550.80	1002.05
551.14	1007.97
551.49	1018.73
551.83	1029.63
552.17	1028.57
552.51	1033.28
552.85	1041.29
553.20	1044.93
553.54	1055.46
553.88	1065.01
554.22	1067.46
554.56	1087.99
554.91	1094.53
555.25	1099.94
555.59	1112.46
555.93	1120.46
556.27	1128.59
556.62	1139.17
556.96	1152.44
557.30	1155.68
557.64	1167.26
557.98	1175.71
558.32	1188.25
558.67	1197.46
559.01	1207.91
559.35	1214.63
559.69	1226.21
560.03	1238.17
560.37	1250.50
560.71	1254.08
561.05	1264.43
561.40	1267.50
561.74	1282.49
562.08	1285.16
562.42	1291.68
562.76	1309.20
563.10	1310.80
563.44	1316.67
563.78	1324.02
564.12	1331.64
564.46	1336.57
564.81	1340.31
565.15	1346.96
565.49	1344.48
565.83	1355.49
566.17	1355.04
566.51	1355.70
566.85	1360.35
567.19	1365.04
567.53	1365.87
567.87	1372.03
568.21	1371.47
568.55	1366.06
568.89	1371.29
569.23	1373.27
569.57	1370.99
569.91	1368.52
570.25	1364.30
570.59	1373.42
570.93	1366.73
571.27	1364.42
571.61	1359.73
571.95	1362.10
572.29	1358.29
572.63	1360.93
572.97	1359.13
573.31	1351.06
573.65	1344.66
573.99	1340.98
574.33	1336.57
574.67	1338.90
575.01	1324.83
575.35	1324.24
575.69	1323.42
576.03	1320.67
576.37	1314.41
576.71	1311.15
577.05	1299.68
577.39	1293.43
577.73	1289.28
578.06	1288.88
578.40	1281.78
578.74	1270.78
579.08	1265.48
579.42	1262.13
579.76	1249.30
580.10	1246.35
580.44	1240.62
580.78	1233.94
581.12	1225.30
581.45	1222.57
581.79	1214.51
582.13	1201.54
582.47	1204.93
582.81	1194.72
583.15	1192.87
583.49	1181.87
583.83	1176.38
584.16	1171.00
584.50	1168.85
584.84	1166.94
585.18	1153.98
585.52	1148.77
585.86	1146.03
586.19	1137.40
586.53	1137.34
586.87	1130.05
587.21	1116.72
587.55	1118.79
587.88	1115.60
588.22	1106.75
588.56	1099.14
588.90	1093.15
589.24	1086.32
589.57	1078.97
589.91	1073.88
590.25	1064.08
590.59	1054.41
590.92	1050.01
591.26	1045.12
591.60	1032.83
591.94	1025.02
592.27	1013.93
592.61	1006.32
592.95	997.59
593.29	990.74
593.62	978.36
593.96	968.80
594.30	960.30
594.64	950.09
594.97	939.49
595.31	926.90
595.65	911.93
595.98	899.03
596.32	881.81
596.66	872.55
597.00	857.76
597.33	842.81
597.67	823.05
598.01	811.41
598.34	793.65
598.68	779.92
599.02	763.84
599.35	747.20
599.69	735.35
600.03	721.78
600.36	705.44
600.70	695.55
601.03	681.11
601.37	670.65
601.71	660.19
602.04	647.01
602.38	633.03
602.72	623.24
603.05	614.30
603.39	602.62
603.72	590.81
604.06	579.33
604.40	569.26
604.73	555.56
605.07	546.43
605.40	534.07
605.74	522.77
606.08	509.88
606.41	498.73
606.75	488.45
607.08	476.21
607.42	465.08
607.75	455.11
608.09	444.03
608.42	432.50
608.76	421.01
609.10	411.40
609.43	399.75
609.77	390.18
610.10	380.20
610.44	369.96
610.77	359.66
611.11	351.98
611.44	341.98
611.78	332.97
612.11	324.42
612.45	316.97
612.78	309.24
613.12	302.31
613.45	295.14
613.79	288.15
614.12	281.52
614.46	275.99
614.79	270.10
615.13	265.16
615.46	259.50
615.79	254.87
616.13	251.45
616.46	246.91
616.80	243.36
617.13	239.18
617.47	236.51
617.80	232.74
618.13	230.90
618.47	227.55
618.80	224.77
619.14	222.63
619.47	220.35
619.81	218.82
620.14	216.42
620.47	214.39
620.81	212.96
621.14	210.96
621.47	209.88
621.81	208.45
622.14	207.37
622.48	205.20
622.81	204.64
623.14	203.56
623.48	202.78
623.81	202.31
624.14	201.59
624.48	201.17
624.81	199.83
625.14	199.52
625.48	199.71
625.81	199.30
626.14	199.55
626.48	198.90
626.81	198.92
627.14	199.61
627.48	199.33
627.81	200.48
628.14	201.60
628.47	203.19
628.81	202.46
629.14	203.51
629.47	204.98
629.81	206.85
630.14	208.44
630.47	209.38
630.80	211.94
631.14	213.28
631.47	217.32
631.80	218.80
632.13	221.81
632.47	224.81
632.80	228.37
633.13	232.64
633.46	235.83
633.79	240.04
634.13	244.82
634.46	249.86
634.79	255.93
635.12	259.48
635.45	266.45
635.79	272.19
636.12	278.74
636.45	285.55
636.78	291.82
637.11	299.55
637.45	308.21
637.78	314.98
638.11	324.48
638.44	331.16
638.77	341.16
639.10	349.94
639.44	357.72
639.77	367.47
640.10	376.43
640.43	385.01
640.76	395.24
641.09	403.46
641.42	413.61
641.75	423.16
642.08	433.22
642.42	442.09
642.75	450.65
643.08	462.07
643.41	469.99
643.74	479.85
644.07	487.93
644.40	495.57
644.73	503.18
645.06	511.98
645.39	520.97
645.72	528.84
646.05	534.09
646.38	543.17
646.72	550.15
647.05	556.28
647.38	563.32
647.71	567.63
648.04	573.22
648.37	577.21
648.70	580.01
649.03	586.99
649.36	590.14
649.69	592.20
650.02	594.54
650.35	597.83
650.68	598.80
651.01	595.61
651.34	598.41
651.67	594.52
652.00	596.26
652.33	589.65
652.66	588.79
652.99	583.65
653.31	581.66
653.64	572.85
653.97	567.35
654.30	561.66
654.63	551.10
654.96	542.56
655.29	536.99
655.62	527.10
655.95	518.01
656.28	509.23
656.61	498.77
656.94	490.34
657.27	480.98
657.60	470.09
657.92	461.88
658.25	452.10
658.58	443.99
658.91	435.65
659.24	427.74
659.57	420.07
659.90	412.13
660.23	404.17
660.55	398.17
660.88	390.97
661.21	382.69
661.54	376.87
661.87	370.97
662.20	364.03
662.52	357.00
662.85	353.71
663.18	345.25
663.51	339.69
663.84	333.77
664.16	327.08
664.49	325.25
664.82	318.90
665.15	315.46
665.48	310.69
665.80	306.03
666.13	302.27
666.46	297.85
666.79	294.63
667.12	291.02
667.44	287.66
667.77	283.23
668.10	281.23
668.43	277.36
668.75	274.74
669.08	272.95
669.41	269.42
669.73	268.17
670.06	265.09
670.39	263.17
670.72	260.71
671.04	259.43
671.37	257.56
671.70	255.36
672.02	254.15
672.35	252.35
672.68	250.35
673.00	250.31
673.33	249.20
673.66	247.66
673.98	245.68
674.31	245.17
674.64	243.34
674.96	243.26
675.29	242.79
675.62	241.38
675.94	240.56
676.27	240.81
676.60	239.73
676.92	239.74
677.25	238.43
677.58	239.38
677.90	237.67
678.23	237.18
678.55	236.61
678.88	237.65
679.21	236.23
679.53	235.43
679.86	235.27
680.18	235.04
680.51	233.61
680.83	232.68
681.16	232.54
681.49	231.48
681.81	230.89
682.14	230.51
682.46	229.75
682.79	228.31
683.11	227.92
683.44	225.91
683.76	227.00
684.09	226.44
684.41	225.38
684.74	225.07
685.06	223.77
685.39	223.57
685.71	222.93
686.04	223.09
686.36	221.77
686.69	222.00
687.01	220.85
687.34	220.77
687.66	219.72
687.99	219.52
688.31	219.26
688.64	218.80
688.96	217.34
689.29	216.27
689.61	216.10
689.93	214.71
690.26	213.77
690.58	213.59
690.91	212.91
691.23	212.02
691.56	210.55
691.88	208.97
692.20	207.61
692.53	206.33
692.85	204.50
693.18	203.89
693.50	202.54
693.82	200.37
694.15	199.19
694.47	197.66
694.79	196.52
695.12	194.78
695.44	193.25
695.76	191.56
696.09	190.16
696.41	188.76
696.73	188.38
697.06	185.53
697.38	184.37
697.70	182.75
698.03	181.58
698.35	179.67
698.67	178.63
699.00	177.24
699.32	176.15
699.64	175.57
699.97	173.24
700.29	173.29
700.61	172.19
700.93	171.94
701.26	170.45
701.58	170.27
701.90	169.01
702.22	167.95
702.55	167.90
702.87	166.99
703.19	166.72
703.51	166.32
703.84	165.84
704.16	166.12
704.48	165.65
704.80	165.48
705.13	164.40
705.45	165.39
705.77	164.91
706.09	165.39
706.41	164.25
706.74	163.70
707.06	163.60
707.38	163.63
707.70	163.11
708.02	163.02
708.34	162.93
708.67	163.46
708.99	163.03
709.31	162.43
709.63	162.84
709.95	162.75
710.27	162.43
710.59	162.55
710.92	162.98
711.24	162.76
711.56	162.32
711.88	162.36
712.20	162.58
712.52	162.39
712.84	162.05
713.16	161.80
713.48	162.16
713.80	161.61
714.12	162.25
714.45	161.51
714.77	162.23
715.09	162.04
715.41	162.33
715.73	161.76
716.05	161.75
716.37	162.00
716.69	161.61
717.01	161.69
717.33	163.44
717.65	161.97
717.97	161.81
718.29	161.99
718.61	161.63
718.93	161.59
719.25	161.50
719.57	161.82
719.89	161.64
720.21	162.02
720.53	161.89
720.85	162.00
721.17	161.85
721.49	161.71
721.81	161.79
722.13	161.41
722.45	161.66
722.77	161.99
723.09	161.81
723.41	161.66
723.72	162.06
724.04	161.35
724.36	161.48
724.68	161.88
725.00	162.65
725.32	161.53
725.64	161.70
725.96	161.26
726.28	161.28
726.60	161.14
726.91	161.26
727.23	161.73
727.55	161.56
727.87	161.26
728.19	161.20
728.51	161.60
728.83	161.59
729.14	161.34
729.46	161.79
729.78	161.08
730.10	161.12
730.42	161.39
730.74	161.41
731.05	161.75
731.37	160.67
731.69	161.69
732.01	161.35
732.33	161.10
732.64	161.64
732.96	161.32
733.28	161.70
733.60	161.31
733.92	161.38
734.23	161.28
734.55	161.67
734.87	161.44
735.19	161.53
735.50	161.31
735.82	161.25
736.14	161.33
736.45	161.67
736.77	161.04
737.09	161.21
737.41	161.36
737.72	161.48
738.04	161.39
738.36	161.61
738.67	161.58
738.99	161.20
739.31	161.04
739.63	161.29
739.94	161.10
740.26	161.10
740.58	161.19
740.89	160.94
741.21	161.22
741.52	161.48
741.84	161.04
742.16	161.43
742.47	161.11
742.79	161.03
743.11	161.32
743.42	161.42
743.74	167.39
744.05	161.15
744.37	161.33
744.69	161.34
745.00	161.46
745.32	161.31
745.63	161.27
745.95	161.15
746.27	161.14
746.58	160.95
746.90	160.87
747.21	160.66
747.53	161.15
747.84	161.08
748.16	161.04
748.47	160.63
748.79	160.91
749.10	160.90
749.42	161.23
749.74	160.96
750.05	161.05
750.37	160.94
750.68	160.87
751.00	161.20
751.31	160.99
751.62	160.73
751.94	161.14
752.25	160.98
752.57	161.22
752.88	161.88
753.20	160.67
753.51	161.54
753.83	161.61
754.14	161.76
754.46	160.76
754.77	161.11
755.08	161.19
755.40	160.95
755.71	160.93
756.03	160.62
756.34	161.08
756.66	160.25
756.97	161.26
757.28	161.01
757.60	160.71
757.91	160.86
758.22	160.78
758.54	161.17
758.85	160.63
759.17	160.75
759.48	161.27
759.79	160.98
760.11	160.71
760.42	161.29
760.73	160.46
761.05	161.34
761.36	160.45
761.67	160.86
761.99	160.72
762.30	160.92
762.61	161.18
762.92	161.35
763.24	160.77
763.55	160.37
763.86	160.57
764.18	160.95
764.49	160.94
764.80	160.94
765.11	161.34
765.43	161.25
765.74	160.84
766.05	161.16
766.36	160.60
766.68	161.09
766.99	161.21
767.30	160.51
767.61	161.06
767.93	161.05
768.24	160.47
768.55	160.61
768.86	161.17
769.17	160.88
769.49	160.86
769.80	160.52
770.11	161.01
770.42	160.71
770.73	160.76
771.04	160.54
771.36	161.12
771.67	160.86
771.98	160.13
772.29	160.85
772.60	161.20
772.91	160.85
773.22	160.45
773.54	161.06
773.85	160.65
774.16	160.92
774.47	160.79
774.78	161.45
775.09	160.68
775.40	160.25
775.71	160.09
776.02	161.02
776.33	160.80
776.64	160.11
776.96	160.81
777.27	160.84
777.58	160.91
777.89	160.61
778.20	160.54
778.51	160.60
778.82	160.44
779.13	161.38
779.44	160.26
779.75	160.26
780.06	161.09
780.37	160.83
780.68	161.35
780.99	160.87
781.30	160.05
781.61	161.15
781.92	160.60
782.23	160.55
782.54	160.64
782.85	160.70
783.16	160.66
783.47	161.07
783.78	160.83
784.08	159.91
784.39	160.25
784.70	160.93
785.01	160.84
785.32	160.72
785.63	160.31
785.94	160.29
786.25	160.40
786.56	160.46
786.87	160.29
787.18	160.18
787.48	160.70
787.79	160.04
788.10	160.67
788.41	160.66
788.72	160.85
789.03	160.44
789.34	160.73
789.64	160.79
789.95	160.76
790.26	160.19
790.57	160.27
790.88	160.84
791.19	160.33
791.49	160.30
791.80	162.02
792.11	160.93
792.42	160.39
792.73	160.01
793.03	160.32
793.34	160.44
793.65	161.02
793.96	160.87
794.27	160.64
794.57	160.75
794.88	160.54
795.19	160.36
795.50	160.84
795.80	160.38
796.11	160.24
796.42	160.81
796.72	160.51
797.03	160.46
797.34	160.61
797.65	159.99
797.95	161.12
798.26	160.41
798.57	160.31
798.87	160.48
799.18	160.32
799.49	160.58
799.79	160.44
800.10	160.71
800.41	160.17
800.71	160.78
801.02	160.42
801.33	160.39
801.63	160.16
801.94	160.48
802.24	161.28
802.55	160.46
802.86	160.10
803.16	160.59
803.47	160.26
803.77	160.46
804.08	160.02
804.39	160.36
804.69	160.62
805.00	160.59
805.30	160.72
805.61	160.52
805.91	160.30
806.22	160.53
806.53	162.20
806.83	160.59
807.14	160.46
807.44	160.32
807.75	160.68
808.05	160.29
808.36	160.09
808.66	159.96
808.97	160.55
809.27	159.94
809.58	160.82
809.88	161.05
810.19	160.66
810.49	160.54
810.80	160.16
811.10	160.35
811.41	160.15
811.71	160.81
812.01	159.83
812.32	159.75
812.62	160.45
812.93	160.71
813.23	160.15
813.54	160.18
813.84	160.11
814.14	160.20
814.45	160.40
814.75	160.27
815.06	161.31
815.36	160.02
815.66	161.13
815.97	160.43
816.27	161.69
816.58	160.05
816.88	159.93
817.18	160.60
817.49	160.31
817.79	160.42
818.09	160.18
818.40	159.94
818.70	160.35
819.00	160.27
819.31	160.48
819.61	160.42
819.91	160.14
820.21	160.43
820.52	160.04
820.82	160.58
821.12	160.54
821.43	160.32
821.73	160.07
822.03	159.43
822.33	159.95
822.64	161.04
822.94	160.24
823.24	160.35
823.54	160.52
823.85	160.54
824.15	160.44
824.45	160.23
824.75	160.13
825.05	160.21
825.36	160.16
825.66	160.20
825.96	160.19
826.26	159.74
826.56	160.21
826.87	160.19
827.17	160.99
827.47	160.58
827.77	160.44
828.07	159.85
828.37	160.44
828.67	160.33
828.98	160.18
829.28	160.30
829.58	159.91
829.88	160.57
830.18	161.72
830.48	161.44
830.78	160.10
831.08	160.59
831.38	159.95
831.69	160.55
831.99	161.09
832.29	160.40
832.59	160.27
832.89	160.53
833.19	160.00
833.49	159.95
833.79	160.04
834.09	162.74
834.39	160.09
834.69	160.29
834.99	160.05
835.29	160.04
835.59	160.86
835.89	160.75
836.19	160.11
836.49	160.83
836.79	159.83
837.09	159.83
837.39	160.74
837.69	160.19
837.99	160.34
838.29	160.03
838.59	159.86
838.89	160.27
839.19	160.43
839.49	160.26
839.79	159.77
840.09	161.00
840.39	160.81
840.68	160.40
840.98	159.56
841.28	160.09
841.58	159.86
841.88	159.88
842.18	160.08
842.48	159.99
842.78	160.89
843.08	161.64
843.37	160.38
843.67	160.97
843.97	160.52
844.27	160.04
844.57	159.94
844.87	160.03
845.16	159.94
845.46	160.05
845.76	159.82
846.06	159.86
846.36	160.48
846.66	160.42
846.95	159.99
847.25	159.97
847.55	159.89
847.85	160.20
848.14	159.60
848.44	160.23
848.74	160.14
849.04	160.21
849.33	160.10
849.63	160.48
849.93	160.51
850.23	160.45
850.52	160.16
850.82	160.33
851.12	160.12
851.42	160.33
851.71	160.26
852.01	160.38
852.31	160.44
852.60	159.99
852.90	160.21
853.20	160.46
853.49	160.48
853.79	160.05
854.09	160.33
854.38	160.93
854.68	160.08
854.98	159.57
855.27	160.00
855.57	160.03
855.86	160.17
856.16	160.07
856.46	159.87
856.75	159.90
857.05	160.01
857.34	160.28
857.64	159.76
857.94	161.41
858.23	160.52
858.53	160.57
858.82	160.02
859.12	160.51
859.41	160.87
859.71	160.41
860.01	160.42
860.30	160.16
860.60	160.10
860.89	162.28
861.19	160.23
861.48	160.68
861.78	159.97
862.07	160.10
862.37	160.59
862.66	160.26
862.96	160.31
863.25	160.03
863.55	160.50
863.84	160.10
864.13	160.13
864.43	160.07
864.72	160.29
865.02	159.46
865.31	160.23
865.61	160.22
865.90	160.01
866.19	159.62
866.49	160.36
866.78	160.78
867.08	160.11
867.37	160.42
867.66	160.32
867.96	160.22
868.25	160.91
868.55	160.63
868.84	159.84
869.13	160.60
869.43	160.07
869.72	160.42
870.01	160.29
870.31	160.31
870.60	160.70
870.89	159.82
871.19	160.70
871.48	160.16
871.77	160.61
872.07	160.56
872.36	160.22
872.65	160.21
872.94	160.10
873.24	160.77
873.53	160.54
873.82	160.98
874.11	160.55
874.41	160.46
874.70	160.37
>>>>>End Processed Spectral Data<<<<<
