SpectraSuite Data File
++++++++++++++++++++++++++++++++++++
Date: Tue Jun 09 17:24:32 BST 2015
User: mpfc3
Dark Spectrum Present: No
Reference Spectrum Present: No
Number of Sampled Component Spectra: 1
Spectrometers: USB2E3636
Integration Time (usec): 30000 (USB2E3636)
Spectra Averaged: 100 (USB2E3636)
Boxcar Smoothing: 0 (USB2E3636)
Correct for Electrical Dark: No (USB2E3636)
Strobe/Lamp Enabled: No (USB2E3636)
Correct for Detector Non-linearity: No (USB2E3636)
Correct for Stray Light: No (USB2E3636)
Number of Pixels in Processed Spectrum: 2048
>>>>>Begin Processed Spectral Data<<<<<
180.28	0.00
180.65	151.08
181.02	152.07
181.39	152.98
181.77	153.41
182.14	155.22
182.51	155.20
182.88	155.75
183.25	156.43
183.63	156.57
184.00	156.84
184.37	158.75
184.74	157.01
185.11	157.71
185.49	157.46
185.86	157.38
186.23	157.00
186.60	157.46
186.97	157.94
187.35	157.51
187.72	156.97
188.09	157.31
188.46	156.80
188.83	157.08
189.20	158.03
189.58	159.07
189.95	159.32
190.32	158.70
190.69	159.37
191.06	159.32
191.43	159.36
191.81	159.43
192.18	159.28
192.55	159.56
192.92	159.46
193.29	160.26
193.66	159.33
194.03	159.92
194.41	159.72
194.78	159.98
195.15	159.63
195.52	160.16
195.89	160.04
196.26	160.12
196.63	159.77
197.01	160.02
197.38	160.54
197.75	160.07
198.12	160.22
198.49	159.60
198.86	160.33
199.23	159.95
199.60	160.47
199.98	160.52
200.35	160.05
200.72	160.51
201.09	160.62
201.46	160.25
201.83	161.33
202.20	160.72
202.57	160.94
202.94	160.36
203.31	160.55
203.69	160.64
204.06	162.03
204.43	160.50
204.80	160.76
205.17	160.90
205.54	161.10
205.91	161.40
206.28	161.38
206.65	160.49
207.02	161.09
207.39	160.79
207.76	161.00
208.14	160.85
208.51	160.60
208.88	161.17
209.25	161.09
209.62	161.03
209.99	161.27
210.36	160.88
210.73	161.26
211.10	161.58
211.47	161.10
211.84	161.29
212.21	161.52
212.58	161.19
212.95	161.59
213.32	161.23
213.69	161.29
214.06	161.26
214.43	161.86
214.80	161.23
215.17	160.89
215.55	161.30
215.92	161.49
216.29	161.53
216.66	161.68
217.03	161.46
217.40	161.43
217.77	161.43
218.14	161.80
218.51	160.94
218.88	161.67
219.25	161.59
219.62	161.90
219.99	161.55
220.36	161.92
220.73	162.74
221.10	161.29
221.47	161.49
221.84	161.72
222.21	162.17
222.58	161.94
222.95	161.66
223.32	161.82
223.69	161.71
224.06	161.05
224.43	161.96
224.80	161.81
225.17	161.98
225.54	162.11
225.91	161.56
226.27	172.27
226.64	161.31
227.01	161.92
227.38	161.92
227.75	161.92
228.12	161.85
228.49	162.97
228.86	161.67
229.23	162.13
229.60	161.73
229.97	161.82
230.34	161.92
230.71	161.91
231.08	162.15
231.45	161.72
231.82	161.92
232.19	162.43
232.56	161.76
232.93	162.04
233.30	162.24
233.66	161.95
234.03	162.15
234.40	162.10
234.77	162.49
235.14	162.30
235.51	161.59
235.88	161.82
236.25	161.82
236.62	162.74
236.99	161.99
237.36	162.78
237.73	161.73
238.09	162.48
238.46	162.20
238.83	162.34
239.20	162.16
239.57	162.52
239.94	161.34
240.31	162.48
240.68	161.83
241.05	161.89
241.41	162.25
241.78	162.61
242.15	162.12
242.52	162.16
242.89	162.34
243.26	161.91
243.63	162.28
244.00	162.14
244.36	162.56
244.73	162.25
245.10	162.30
245.47	162.03
245.84	162.17
246.21	162.61
246.58	163.19
246.94	162.57
247.31	162.62
247.68	162.22
248.05	162.30
248.42	161.96
248.79	162.57
249.15	162.35
249.52	161.72
249.89	162.43
250.26	163.57
250.63	162.09
251.00	162.82
251.36	162.08
251.73	162.28
252.10	163.22
252.47	162.92
252.84	162.33
253.20	162.34
253.57	162.67
253.94	162.18
254.31	162.69
254.68	162.50
255.05	162.82
255.41	162.49
255.78	162.54
256.15	162.24
256.52	162.39
256.88	161.99
257.25	162.45
257.62	162.18
257.99	162.24
258.36	162.79
258.72	162.48
259.09	161.91
259.46	162.12
259.83	162.33
260.19	162.45
260.56	162.26
260.93	162.06
261.30	162.54
261.67	162.49
262.03	162.61
262.40	162.47
262.77	162.19
263.14	162.39
263.50	162.95
263.87	161.95
264.24	162.63
264.61	162.61
264.97	162.81
265.34	162.60
265.71	163.04
266.07	162.00
266.44	162.41
266.81	162.60
267.18	162.58
267.54	162.62
267.91	162.84
268.28	162.35
268.64	162.45
269.01	162.80
269.38	162.37
269.75	162.07
270.11	162.45
270.48	162.20
270.85	162.52
271.21	162.23
271.58	162.24
271.95	162.27
272.32	163.22
272.68	162.64
273.05	162.17
273.42	162.30
273.78	162.82
274.15	162.61
274.52	162.14
274.88	162.44
275.25	162.35
275.62	162.03
275.98	162.47
276.35	162.08
276.72	163.20
277.08	162.73
277.45	162.77
277.82	162.95
278.18	162.78
278.55	162.56
278.92	162.73
279.28	162.52
279.65	162.15
280.01	162.94
280.38	162.38
280.75	162.82
281.11	163.03
281.48	162.67
281.85	162.45
282.21	162.58
282.58	162.09
282.95	162.53
283.31	162.98
283.68	162.70
284.04	162.93
284.41	163.06
284.78	162.73
285.14	165.26
285.51	163.99
285.87	162.40
286.24	162.93
286.61	163.03
286.97	162.74
287.34	162.47
287.70	162.53
288.07	162.14
288.44	162.88
288.80	162.85
289.17	162.15
289.53	162.76
289.90	163.29
290.26	162.90
290.63	163.04
291.00	162.64
291.36	163.17
291.73	162.67
292.09	163.07
292.46	162.52
292.82	162.77
293.19	162.79
293.56	162.35
293.92	162.77
294.29	163.13
294.65	162.76
295.02	162.91
295.38	162.74
295.75	163.43
296.11	162.55
296.48	162.83
296.84	163.01
297.21	162.26
297.57	162.63
297.94	163.36
298.30	162.15
298.67	162.44
299.04	162.60
299.40	162.76
299.77	162.78
300.13	162.62
300.50	162.52
300.86	162.89
301.23	162.71
301.59	162.87
301.96	162.50
302.32	163.01
302.69	162.83
303.05	162.57
303.42	163.13
303.78	162.70
304.14	162.75
304.51	162.43
304.87	162.50
305.24	162.95
305.60	162.92
305.97	163.09
306.33	162.73
306.70	162.53
307.06	163.17
307.43	164.01
307.79	162.61
308.16	162.67
308.52	163.24
308.88	162.73
309.25	163.12
309.61	162.51
309.98	162.44
310.34	163.21
310.71	162.96
311.07	162.95
311.44	163.15
311.80	162.74
312.16	163.32
312.53	163.11
312.89	162.96
313.26	162.77
313.62	162.99
313.98	163.08
314.35	163.28
314.71	163.30
315.08	162.65
315.44	162.91
315.80	162.68
316.17	162.54
316.53	164.93
316.90	162.82
317.26	163.17
317.62	163.00
317.99	162.54
318.35	163.12
318.72	162.96
319.08	162.41
319.44	162.96
319.81	163.15
320.17	162.89
320.53	162.85
320.90	162.69
321.26	163.14
321.62	163.87
321.99	163.04
322.35	163.19
322.72	162.79
323.08	163.42
323.44	162.70
323.81	162.69
324.17	162.85
324.53	162.90
324.90	162.62
325.26	162.59
325.62	163.29
325.99	162.52
326.35	163.00
326.71	162.65
327.08	163.09
327.44	162.47
327.80	162.70
328.16	164.04
328.53	163.08
328.89	162.15
329.25	163.00
329.62	162.88
329.98	163.41
330.34	163.14
330.71	162.66
331.07	163.05
331.43	163.14
331.79	162.90
332.16	163.10
332.52	162.53
332.88	162.55
333.24	162.81
333.61	162.57
333.97	163.00
334.33	162.82
334.70	163.19
335.06	162.15
335.42	162.58
335.78	164.44
336.15	163.45
336.51	163.14
336.87	162.75
337.23	163.09
337.60	162.64
337.96	162.68
338.32	162.42
338.68	162.75
339.04	162.91
339.41	163.35
339.77	163.41
340.13	162.84
340.49	163.02
340.86	163.05
341.22	162.65
341.58	163.09
341.94	163.11
342.30	163.03
342.67	162.99
343.03	162.78
343.39	162.67
343.75	163.31
344.11	163.08
344.48	163.36
344.84	163.38
345.20	163.08
345.56	163.00
345.92	162.72
346.28	163.09
346.65	164.32
347.01	163.10
347.37	162.96
347.73	163.47
348.09	163.09
348.45	163.18
348.82	163.53
349.18	163.09
349.54	163.21
349.90	162.49
350.26	162.84
350.62	162.97
350.98	163.32
351.35	163.45
351.71	162.76
352.07	163.35
352.43	162.92
352.79	162.91
353.15	163.58
353.51	164.25
353.87	162.96
354.24	163.34
354.60	163.18
354.96	163.09
355.32	163.40
355.68	163.39
356.04	163.09
356.40	163.66
356.76	163.31
357.12	163.21
357.48	163.44
357.85	163.14
358.21	162.99
358.57	162.92
358.93	163.64
359.29	162.99
359.65	163.39
360.01	163.27
360.37	163.70
360.73	163.07
361.09	163.43
361.45	162.89
361.81	163.13
362.17	163.10
362.53	162.89
362.89	163.67
363.25	163.03
363.62	163.54
363.98	163.25
364.34	163.46
364.70	163.27
365.06	163.02
365.42	163.37
365.78	163.14
366.14	163.24
366.50	163.20
366.86	163.11
367.22	163.44
367.58	163.32
367.94	163.64
368.30	163.30
368.66	163.46
369.02	164.87
369.38	163.63
369.74	163.27
370.10	163.20
370.46	164.96
370.82	163.30
371.18	163.25
371.54	163.89
371.90	163.89
372.26	163.62
372.62	163.98
372.98	163.64
373.33	164.30
373.69	163.30
374.05	164.23
374.41	163.76
374.77	163.85
375.13	163.90
375.49	163.71
375.85	164.31
376.21	164.15
376.57	163.85
376.93	164.26
377.29	163.78
377.65	164.44
378.01	164.51
378.37	164.40
378.73	164.39
379.08	164.63
379.44	164.27
379.80	164.45
380.16	164.63
380.52	164.89
380.88	165.17
381.24	164.59
381.60	165.14
381.96	165.55
382.32	164.90
382.67	165.30
383.03	165.66
383.39	165.38
383.75	165.95
384.11	165.44
384.47	165.89
384.83	166.22
385.19	165.99
385.54	166.26
385.90	166.84
386.26	166.86
386.62	166.60
386.98	166.32
387.34	167.36
387.70	166.86
388.05	167.89
388.41	168.02
388.77	167.37
389.13	168.26
389.49	168.78
389.85	168.41
390.20	169.08
390.56	169.08
390.92	169.18
391.28	169.16
391.64	170.01
391.99	170.24
392.35	169.93
392.71	170.77
393.07	170.85
393.43	171.36
393.78	171.11
394.14	171.28
394.50	171.87
394.86	172.95
395.22	172.42
395.57	171.83
395.93	173.19
396.29	173.50
396.65	173.90
397.00	173.86
397.36	174.62
397.72	174.47
398.08	175.06
398.43	175.24
398.79	175.41
399.15	176.01
399.51	177.00
399.86	176.61
400.22	176.83
400.58	177.56
400.94	177.68
401.29	178.21
401.65	179.20
402.01	178.95
402.37	179.10
402.72	180.43
403.08	180.92
403.44	181.97
403.79	181.23
404.15	181.80
404.51	182.34
404.86	183.35
405.22	183.67
405.58	183.70
405.94	184.50
406.29	185.55
406.65	185.04
407.01	186.02
407.36	186.31
407.72	186.46
408.08	187.47
408.43	187.64
408.79	189.19
409.15	189.11
409.50	190.10
409.86	188.92
410.22	190.57
410.57	191.53
410.93	191.70
411.29	193.57
411.64	192.55
412.00	193.70
412.35	195.16
412.71	194.20
413.07	195.93
413.42	195.51
413.78	197.22
414.14	196.83
414.49	198.42
414.85	199.05
415.20	200.25
415.56	201.79
415.92	200.65
416.27	202.30
416.63	203.26
416.98	204.09
417.34	205.17
417.70	204.56
418.05	205.49
418.41	206.75
418.76	208.15
419.12	207.26
419.47	208.94
419.83	208.65
420.19	211.38
420.54	211.46
420.90	211.65
421.25	212.45
421.61	213.93
421.96	213.29
422.32	217.30
422.67	216.44
423.03	217.06
423.39	218.78
423.74	220.45
424.10	220.73
424.45	221.34
424.81	220.75
425.16	222.29
425.52	223.75
425.87	224.47
426.23	226.29
426.58	226.09
426.94	228.60
427.29	231.53
427.65	230.96
428.00	230.44
428.36	232.33
428.71	232.41
429.07	233.37
429.42	234.74
429.78	236.73
430.13	238.90
430.49	238.80
430.84	240.35
431.19	241.17
431.55	240.56
431.90	243.64
432.26	244.67
432.61	246.58
432.97	247.91
433.32	248.59
433.68	249.13
434.03	250.42
434.39	251.66
434.74	251.84
435.09	254.18
435.45	253.89
435.80	257.93
436.16	256.06
436.51	258.30
436.86	260.43
437.22	262.11
437.57	266.24
437.93	266.50
438.28	267.14
438.63	267.41
438.99	270.38
439.34	273.16
439.70	271.10
440.05	270.28
440.40	276.73
440.76	276.68
441.11	278.27
441.47	285.33
441.82	283.56
442.17	284.33
442.53	285.20
442.88	285.49
443.23	287.96
443.59	286.53
443.94	291.19
444.29	290.47
444.65	293.81
445.00	295.18
445.35	295.63
445.71	298.24
446.06	300.73
446.41	298.56
446.77	300.57
447.12	305.28
447.47	304.54
447.83	309.47
448.18	310.13
448.53	305.98
448.89	309.63
449.24	312.31
449.59	320.02
449.94	315.97
450.30	314.72
450.65	319.71
451.00	326.68
451.36	326.92
451.71	325.18
452.06	327.74
452.41	331.14
452.77	330.69
453.12	338.65
453.47	338.78
453.82	341.73
454.18	331.83
454.53	342.52
454.88	340.79
455.23	348.08
455.59	341.86
455.94	349.00
456.29	353.49
456.64	348.22
457.00	348.92
457.35	358.95
457.70	353.00
458.05	362.39
458.40	366.57
458.76	370.81
459.11	370.75
459.46	366.22
459.81	367.68
460.16	370.40
460.52	382.88
460.87	378.67
461.22	381.56
461.57	386.30
461.92	381.73
462.28	390.77
462.63	399.65
462.98	398.43
463.33	403.01
463.68	405.98
464.03	403.68
464.38	410.60
464.74	407.99
465.09	411.58
465.44	423.42
465.79	426.13
466.14	422.84
466.49	431.91
466.84	434.73
467.20	440.82
467.55	444.49
467.90	448.47
468.25	451.46
468.60	459.34
468.95	453.14
469.30	457.63
469.65	465.76
470.00	469.27
470.36	476.40
470.71	490.16
471.06	489.51
471.41	485.64
471.76	496.11
472.11	500.65
472.46	506.21
472.81	510.21
473.16	518.37
473.51	519.16
473.86	527.01
474.21	530.63
474.56	541.51
474.91	544.31
475.26	545.89
475.62	551.83
475.97	565.20
476.32	560.34
476.67	565.63
477.02	576.42
477.37	583.84
477.72	593.00
478.07	594.65
478.42	594.98
478.77	604.58
479.12	619.03
479.47	616.79
479.82	621.52
480.17	634.29
480.52	646.94
480.87	645.69
481.22	646.00
481.57	654.35
481.92	650.45
482.27	665.26
482.62	676.87
482.97	677.13
483.32	682.65
483.67	682.35
484.02	688.80
484.36	693.92
484.71	705.66
485.06	710.27
485.41	714.06
485.76	726.16
486.11	727.57
486.46	730.73
486.81	735.42
487.16	738.85
487.51	747.39
487.86	757.41
488.21	764.32
488.56	771.42
488.91	774.07
489.25	784.55
489.60	788.89
489.95	793.72
490.30	800.98
490.65	806.47
491.00	815.21
491.35	818.66
491.70	818.88
492.05	830.90
492.39	842.49
492.74	842.44
493.09	851.51
493.44	856.34
493.79	862.04
494.14	870.22
494.49	872.44
494.83	879.75
495.18	891.59
495.53	895.21
495.88	909.89
496.23	916.56
496.58	915.52
496.92	922.23
497.27	935.31
497.62	941.92
497.97	942.28
498.32	953.71
498.67	956.74
499.01	968.21
499.36	974.32
499.71	978.69
500.06	983.53
500.41	994.99
500.75	1000.94
501.10	1006.53
501.45	1011.05
501.80	1015.18
502.14	1022.57
502.49	1028.35
502.84	1030.14
503.19	1043.76
503.53	1043.89
503.88	1051.75
504.23	1057.13
504.58	1059.69
504.92	1067.51
505.27	1072.00
505.62	1078.32
505.97	1080.29
506.31	1083.19
506.66	1093.60
507.01	1094.54
507.36	1100.29
507.70	1098.64
508.05	1105.60
508.40	1110.01
508.74	1111.82
509.09	1112.76
509.44	1112.09
509.79	1115.42
510.13	1119.96
510.48	1120.57
510.83	1123.89
511.17	1125.29
511.52	1127.93
511.87	1129.79
512.21	1131.09
512.56	1132.57
512.91	1135.23
513.25	1143.00
513.60	1137.51
513.95	1145.23
514.29	1142.99
514.64	1149.39
514.98	1148.66
515.33	1151.27
515.68	1155.42
516.02	1159.31
516.37	1155.16
516.72	1155.62
517.06	1166.43
517.41	1168.17
517.75	1163.31
518.10	1170.04
518.45	1167.70
518.79	1173.19
519.14	1175.47
519.48	1176.88
519.83	1175.20
520.18	1175.02
520.52	1179.32
520.87	1183.74
521.21	1181.39
521.56	1178.04
521.90	1178.05
522.25	1179.86
522.60	1179.06
522.94	1186.55
523.29	1189.36
523.63	1180.71
523.98	1179.71
524.32	1185.28
524.67	1181.96
525.01	1177.83
525.36	1176.37
525.70	1183.20
526.05	1185.56
526.39	1173.37
526.74	1176.08
527.08	1173.32
527.43	1174.82
527.77	1171.15
528.12	1172.44
528.46	1167.51
528.81	1167.27
529.15	1164.92
529.50	1166.98
529.84	1159.55
530.19	1160.68
530.53	1149.51
530.88	1145.41
531.22	1149.15
531.57	1141.60
531.91	1138.91
532.26	1133.17
532.60	1129.42
532.94	1120.19
533.29	1120.69
533.63	1116.62
533.98	1108.74
534.32	1108.56
534.67	1100.88
535.01	1091.09
535.35	1085.13
535.70	1077.70
536.04	1072.31
536.39	1068.02
536.73	1060.37
537.07	1054.09
537.42	1049.56
537.76	1043.92
538.11	1032.15
538.45	1027.12
538.79	1020.48
539.14	1016.29
539.48	1008.23
539.82	1001.99
540.17	1000.22
540.51	994.02
540.85	986.59
541.20	980.91
541.54	975.52
541.89	971.65
542.23	967.60
542.57	966.40
542.92	964.20
543.26	962.05
543.60	965.14
543.94	963.69
544.29	960.73
544.63	955.39
544.97	959.81
545.32	961.13
545.66	962.14
546.00	960.79
546.35	963.88
546.69	966.70
547.03	967.18
547.37	968.39
547.72	968.89
548.06	977.47
548.40	977.10
548.75	980.79
549.09	985.94
549.43	990.29
549.77	993.86
550.12	995.23
550.46	1004.30
550.80	1002.78
551.14	1011.95
551.49	1019.45
551.83	1031.68
552.17	1031.44
552.51	1037.48
552.85	1044.26
553.20	1048.99
553.54	1059.15
553.88	1068.88
554.22	1071.21
554.56	1092.24
554.91	1098.71
555.25	1102.71
555.59	1115.58
555.93	1122.69
556.27	1131.67
556.62	1142.92
556.96	1158.21
557.30	1159.10
557.64	1169.58
557.98	1178.63
558.32	1191.93
558.67	1201.98
559.01	1212.57
559.35	1217.24
559.69	1229.86
560.03	1241.88
560.37	1257.01
560.71	1259.02
561.05	1267.09
561.40	1269.83
561.74	1285.04
562.08	1287.36
562.42	1295.54
562.76	1315.16
563.10	1315.28
563.44	1320.57
563.78	1327.73
564.12	1337.52
564.46	1342.16
564.81	1345.64
565.15	1354.46
565.49	1351.47
565.83	1358.56
566.17	1358.21
566.51	1361.06
566.85	1365.15
567.19	1367.97
567.53	1371.51
567.87	1376.83
568.21	1376.87
568.55	1370.84
568.89	1373.49
569.23	1377.50
569.57	1374.79
569.91	1372.31
570.25	1367.59
570.59	1376.29
570.93	1372.88
571.27	1369.16
571.61	1365.39
571.95	1365.95
572.29	1361.68
572.63	1365.20
572.97	1362.53
573.31	1355.11
573.65	1349.80
573.99	1347.99
574.33	1339.42
574.67	1340.95
575.01	1327.61
575.35	1329.46
575.69	1324.13
576.03	1325.40
576.37	1316.77
576.71	1315.24
577.05	1303.20
577.39	1295.13
577.73	1292.53
578.06	1291.98
578.40	1286.48
578.74	1273.51
579.08	1266.63
579.42	1265.02
579.76	1253.91
580.10	1250.82
580.44	1243.81
580.78	1236.86
581.12	1226.60
581.45	1226.72
581.79	1219.43
582.13	1205.46
582.47	1207.92
582.81	1198.83
583.15	1195.89
583.49	1184.31
583.83	1178.06
584.16	1173.97
584.50	1172.09
584.84	1168.08
585.18	1156.34
585.52	1150.72
585.86	1148.10
586.19	1141.78
586.53	1137.02
586.87	1130.24
587.21	1118.59
587.55	1121.54
587.88	1118.01
588.22	1110.36
588.56	1100.81
588.90	1093.02
589.24	1088.89
589.57	1079.88
589.91	1076.34
590.25	1065.25
590.59	1056.77
590.92	1052.01
591.26	1046.12
591.60	1033.23
591.94	1027.54
592.27	1016.97
592.61	1007.05
592.95	997.65
593.29	992.50
593.62	981.51
593.96	969.75
594.30	962.66
594.64	950.41
594.97	940.30
595.31	927.16
595.65	912.53
595.98	898.14
596.32	881.63
596.66	871.34
597.00	857.35
597.33	844.10
597.67	823.64
598.01	811.17
598.34	795.41
598.68	780.20
599.02	761.98
599.35	747.50
599.69	735.85
600.03	721.14
600.36	706.86
600.70	694.69
601.03	681.48
601.37	671.41
601.71	659.92
602.04	646.56
602.38	632.04
602.72	624.23
603.05	614.36
603.39	601.38
603.72	591.31
604.06	579.33
604.40	568.63
604.73	554.53
605.07	547.08
605.40	533.68
605.74	522.26
606.08	509.00
606.41	497.75
606.75	488.79
607.08	475.39
607.42	464.48
607.75	455.82
608.09	442.56
608.42	431.98
608.76	420.94
609.10	412.27
609.43	399.82
609.77	388.18
610.10	379.96
610.44	368.65
610.77	359.99
611.11	351.43
611.44	341.10
611.78	333.57
612.11	324.93
612.45	317.38
612.78	309.39
613.12	301.69
613.45	294.58
613.79	287.49
614.12	281.11
614.46	274.82
614.79	268.95
615.13	264.44
615.46	259.44
615.79	254.73
616.13	250.00
616.46	246.23
616.80	242.63
617.13	239.37
617.47	236.03
617.80	232.75
618.13	230.41
618.47	227.28
618.80	224.37
619.14	222.33
619.47	219.94
619.81	217.56
620.14	215.57
620.47	214.39
620.81	212.63
621.14	211.25
621.47	209.02
621.81	208.06
622.14	207.26
622.48	205.32
622.81	205.01
623.14	203.33
623.48	202.64
623.81	202.06
624.14	200.84
624.48	199.92
624.81	200.03
625.14	199.41
625.48	199.24
625.81	198.66
626.14	198.70
626.48	198.54
626.81	199.49
627.14	199.20
627.48	199.69
627.81	199.84
628.14	200.87
628.47	202.71
628.81	202.10
629.14	203.83
629.47	204.84
629.81	206.63
630.14	207.65
630.47	209.11
630.80	211.18
631.14	213.86
631.47	216.76
631.80	219.07
632.13	222.11
632.47	224.73
632.80	228.22
633.13	232.32
633.46	235.92
633.79	240.33
634.13	245.08
634.46	249.66
634.79	256.08
635.12	260.74
635.45	266.28
635.79	272.86
636.12	278.60
636.45	285.87
636.78	292.51
637.11	301.13
637.45	308.24
637.78	315.80
638.11	324.51
638.44	331.65
638.77	342.46
639.10	350.16
639.44	358.36
639.77	368.05
640.10	377.56
640.43	386.03
640.76	396.62
641.09	406.16
641.42	414.59
641.75	423.95
642.08	433.83
642.42	443.66
642.75	452.29
643.08	463.20
643.41	472.13
643.74	480.38
644.07	489.38
644.40	497.51
644.73	504.20
645.06	513.97
645.39	523.20
645.72	530.83
646.05	535.53
646.38	544.45
646.72	551.32
647.05	558.84
647.38	566.09
647.71	569.53
648.04	574.11
648.37	579.46
648.70	580.97
649.03	588.30
649.36	591.86
649.69	592.97
650.02	596.66
650.35	598.30
650.68	600.33
651.01	598.75
651.34	599.47
651.67	595.09
652.00	596.98
652.33	590.96
652.66	589.02
652.99	584.06
653.31	581.76
653.64	573.01
653.97	567.20
654.30	562.52
654.63	552.40
654.96	541.98
655.29	537.76
655.62	527.99
655.95	519.27
656.28	508.88
656.61	499.32
656.94	489.85
657.27	480.68
657.60	470.18
657.92	460.95
658.25	452.82
658.58	443.40
658.91	435.73
659.24	427.46
659.57	419.27
659.90	411.59
660.23	403.68
660.55	397.33
660.88	390.69
661.21	382.45
661.54	376.83
661.87	370.13
662.20	362.91
662.52	357.72
662.85	354.00
663.18	344.47
663.51	339.29
663.84	333.83
664.16	327.40
664.49	324.19
664.82	319.39
665.15	314.60
665.48	309.82
665.80	305.68
666.13	301.41
666.46	298.35
666.79	293.80
667.12	290.94
667.44	286.87
667.77	283.82
668.10	280.31
668.43	277.58
668.75	274.46
669.08	272.35
669.41	269.87
669.73	267.43
670.06	264.97
670.39	262.18
670.72	260.70
671.04	258.86
671.37	257.23
671.70	255.37
672.02	253.69
672.35	252.69
672.68	251.17
673.00	250.07
673.33	248.26
673.66	246.92
673.98	246.51
674.31	245.65
674.64	243.89
674.96	243.14
675.29	242.62
675.62	241.25
675.94	240.28
676.27	240.86
676.60	240.68
676.92	239.03
677.25	239.14
677.58	239.61
677.90	238.19
678.23	237.31
678.55	237.30
678.88	237.83
679.21	236.01
679.53	234.91
679.86	234.75
680.18	233.90
680.51	233.57
680.83	232.41
681.16	233.05
681.49	232.06
681.81	230.12
682.14	229.92
682.46	228.72
682.79	228.64
683.11	228.30
683.44	226.54
683.76	226.70
684.09	225.49
684.41	225.50
684.74	224.70
685.06	224.04
685.39	224.06
685.71	223.03
686.04	222.38
686.36	222.34
686.69	221.56
687.01	220.50
687.34	220.99
687.66	219.28
687.99	219.44
688.31	218.68
688.64	217.98
688.96	216.87
689.29	216.43
689.61	215.78
689.93	214.27
690.26	213.76
690.58	213.07
690.91	212.22
691.23	211.31
691.56	209.93
691.88	209.19
692.20	207.44
692.53	206.03
692.85	204.56
693.18	203.25
693.50	201.32
693.82	200.28
694.15	198.83
694.47	198.16
694.79	195.67
695.12	194.68
695.44	193.05
695.76	191.35
696.09	189.86
696.41	188.48
696.73	188.10
697.06	185.24
697.38	183.83
697.70	182.03
698.03	181.52
698.35	179.13
698.67	178.30
699.00	177.08
699.32	175.70
699.64	175.07
699.97	174.55
700.29	172.35
700.61	172.56
700.93	171.48
701.26	169.51
701.58	169.23
701.90	168.76
702.22	167.86
702.55	167.44
702.87	167.61
703.19	166.65
703.51	166.58
703.84	165.64
704.16	165.25
704.48	164.84
704.80	164.52
705.13	164.20
705.45	164.94
705.77	163.70
706.09	164.28
706.41	163.38
706.74	163.58
707.06	163.20
707.38	162.92
707.70	163.15
708.02	162.58
708.34	162.55
708.67	162.44
708.99	162.41
709.31	162.53
709.63	162.46
709.95	162.29
710.27	162.20
710.59	162.68
710.92	162.57
711.24	161.80
711.56	161.68
711.88	161.73
712.20	162.01
712.52	161.21
712.84	161.82
713.16	161.55
713.48	161.26
713.80	161.87
714.12	162.03
714.45	161.42
714.77	161.74
715.09	161.69
715.41	161.47
715.73	160.83
716.05	161.60
716.37	161.94
716.69	161.68
717.01	161.70
717.33	162.73
717.65	161.47
717.97	161.33
718.29	161.82
718.61	161.21
718.93	161.99
719.25	161.65
719.57	161.46
719.89	161.46
720.21	161.38
720.53	161.49
720.85	161.21
721.17	161.17
721.49	161.22
721.81	161.23
722.13	161.21
722.45	161.27
722.77	161.01
723.09	161.09
723.41	161.46
723.72	161.28
724.04	160.85
724.36	161.44
724.68	161.51
725.00	161.78
725.32	161.46
725.64	161.66
725.96	161.46
726.28	160.74
726.60	161.39
726.91	160.74
727.23	161.64
727.55	160.96
727.87	161.18
728.19	160.90
728.51	160.82
728.83	161.35
729.14	160.76
729.46	161.56
729.78	160.97
730.10	160.95
730.42	160.57
730.74	160.89
731.05	160.83
731.37	160.85
731.69	161.29
732.01	161.58
732.33	160.79
732.64	161.49
732.96	160.99
733.28	161.01
733.60	160.94
733.92	161.24
734.23	160.78
734.55	161.10
734.87	160.87
735.19	160.64
735.50	160.94
735.82	160.82
736.14	160.74
736.45	160.23
736.77	160.75
737.09	160.29
737.41	161.69
737.72	161.18
738.04	160.81
738.36	161.04
738.67	161.79
738.99	160.93
739.31	160.73
739.63	161.14
739.94	160.55
740.26	161.12
740.58	160.81
740.89	161.20
741.21	161.15
741.52	160.30
741.84	160.91
742.16	160.53
742.47	161.07
742.79	161.24
743.11	161.32
743.42	161.29
743.74	166.59
744.05	160.37
744.37	160.54
744.69	161.41
745.00	160.55
745.32	161.25
745.63	160.51
745.95	160.73
746.27	160.80
746.58	160.45
746.90	160.83
747.21	160.78
747.53	161.01
747.84	160.96
748.16	160.36
748.47	161.06
748.79	160.77
749.10	160.42
749.42	160.75
749.74	161.66
750.05	160.84
750.37	160.63
750.68	161.15
751.00	160.48
751.31	160.79
751.62	160.19
751.94	160.69
752.25	160.69
752.57	160.28
752.88	160.96
753.20	160.47
753.51	160.44
753.83	161.12
754.14	160.99
754.46	160.41
754.77	160.21
755.08	160.43
755.40	159.98
755.71	160.53
756.03	160.24
756.34	160.70
756.66	160.79
756.97	160.39
757.28	160.56
757.60	161.06
757.91	160.25
758.22	160.79
758.54	160.60
758.85	160.41
759.17	160.33
759.48	160.08
759.79	160.35
760.11	160.27
760.42	160.19
760.73	160.06
761.05	160.31
761.36	160.26
761.67	160.71
761.99	160.56
762.30	160.31
762.61	160.16
762.92	160.38
763.24	159.78
763.55	160.59
763.86	160.63
764.18	160.65
764.49	160.38
764.80	160.54
765.11	160.63
765.43	160.74
765.74	160.74
766.05	160.23
766.36	160.64
766.68	160.22
766.99	160.37
767.30	160.55
767.61	160.90
767.93	160.68
768.24	160.48
768.55	160.30
768.86	160.28
769.17	160.54
769.49	160.47
769.80	160.14
770.11	160.65
770.42	160.40
770.73	160.47
771.04	160.53
771.36	160.15
771.67	160.31
771.98	160.11
772.29	160.36
772.60	160.56
772.91	160.21
773.22	160.50
773.54	160.23
773.85	160.30
774.16	160.28
774.47	159.84
774.78	160.40
775.09	160.06
775.40	160.44
775.71	160.38
776.02	160.74
776.33	160.05
776.64	159.77
776.96	160.17
777.27	160.53
777.58	160.60
777.89	160.65
778.20	160.21
778.51	159.81
778.82	159.94
779.13	160.96
779.44	160.03
779.75	160.14
780.06	160.64
780.37	159.89
780.68	160.55
780.99	160.55
781.30	159.95
781.61	160.45
781.92	160.23
782.23	160.32
782.54	159.94
782.85	159.82
783.16	159.86
783.47	159.95
783.78	160.12
784.08	160.08
784.39	159.90
784.70	160.39
785.01	160.25
785.32	160.30
785.63	160.33
785.94	160.01
786.25	159.67
786.56	160.08
786.87	159.78
787.18	160.19
787.48	160.04
787.79	160.02
788.10	160.14
788.41	159.90
788.72	160.28
789.03	160.33
789.34	160.04
789.64	160.47
789.95	160.20
790.26	159.98
790.57	160.11
790.88	160.01
791.19	160.28
791.49	160.47
791.80	161.58
792.11	159.94
792.42	160.34
792.73	159.89
793.03	159.55
793.34	160.39
793.65	160.93
793.96	159.94
794.27	160.28
794.57	160.76
794.88	159.88
795.19	160.04
795.50	160.20
795.80	160.15
796.11	160.04
796.42	160.57
796.72	159.81
797.03	159.86
797.34	160.18
797.65	159.87
797.95	160.32
798.26	159.67
798.57	160.32
798.87	160.10
799.18	160.02
799.49	160.11
799.79	159.63
800.10	160.09
800.41	160.32
800.71	159.68
801.02	159.77
801.33	160.25
801.63	160.15
801.94	159.94
802.24	160.67
802.55	160.59
802.86	159.81
803.16	159.90
803.47	160.26
803.77	159.46
804.08	159.54
804.39	159.71
804.69	160.47
805.00	159.66
805.30	159.94
805.61	160.02
805.91	159.71
806.22	160.08
806.53	161.94
806.83	160.18
807.14	160.13
807.44	159.64
807.75	160.49
808.05	160.23
808.36	159.80
808.66	160.17
808.97	160.06
809.27	159.92
809.58	159.78
809.88	160.41
810.19	160.14
810.49	160.19
810.80	160.25
811.10	160.25
811.41	159.55
811.71	160.26
812.01	159.77
812.32	159.85
812.62	160.18
812.93	159.58
813.23	160.23
813.54	159.42
813.84	160.06
814.14	159.89
814.45	160.11
814.75	160.15
815.06	160.49
815.36	159.36
815.66	161.20
815.97	159.92
816.27	160.80
816.58	160.16
816.88	160.06
817.18	160.03
817.49	160.40
817.79	160.00
818.09	159.85
818.40	159.82
818.70	160.01
819.00	160.08
819.31	159.74
819.61	160.19
819.91	159.66
820.21	159.61
820.52	159.69
820.82	159.61
821.12	159.69
821.43	159.81
821.73	159.96
822.03	160.42
822.33	160.27
822.64	160.40
822.94	159.87
823.24	159.98
823.54	159.76
823.85	160.37
824.15	159.94
824.45	160.21
824.75	159.76
825.05	159.95
825.36	159.34
825.66	160.03
825.96	159.91
826.26	159.50
826.56	160.26
826.87	160.21
827.17	159.92
827.47	160.18
827.77	159.98
828.07	159.52
828.37	159.60
828.67	159.74
828.98	159.75
829.28	159.97
829.58	159.31
829.88	159.80
830.18	161.44
830.48	161.17
830.78	159.97
831.08	159.83
831.38	160.62
831.69	160.39
831.99	160.26
832.29	160.02
832.59	159.83
832.89	160.06
833.19	160.32
833.49	159.90
833.79	159.49
834.09	162.38
834.39	160.26
834.69	159.90
834.99	160.03
835.29	159.74
835.59	160.06
835.89	160.66
836.19	159.60
836.49	160.86
836.79	159.35
837.09	159.77
837.39	159.98
837.69	159.36
837.99	159.76
838.29	160.14
838.59	159.80
838.89	159.93
839.19	160.43
839.49	159.80
839.79	159.85
840.09	159.68
840.39	159.55
840.68	159.89
840.98	159.76
841.28	159.93
841.58	159.68
841.88	159.67
842.18	159.81
842.48	159.95
842.78	160.06
843.08	161.09
843.37	159.46
843.67	160.36
843.97	160.39
844.27	159.57
844.57	159.90
844.87	159.97
845.16	159.72
845.46	159.78
845.76	160.05
846.06	159.72
846.36	160.01
846.66	158.89
846.95	160.06
847.25	160.30
847.55	159.82
847.85	160.00
848.14	159.47
848.44	159.72
848.74	159.72
849.04	160.16
849.33	159.90
849.63	160.02
849.93	160.09
850.23	159.25
850.52	159.87
850.82	159.68
851.12	159.77
851.42	160.33
851.71	160.08
852.01	160.02
852.31	160.14
852.60	159.85
852.90	160.08
853.20	159.85
853.49	159.53
853.79	159.50
854.09	160.13
854.38	160.12
854.68	159.74
854.98	159.55
855.27	159.93
855.57	159.90
855.86	159.73
856.16	159.53
856.46	159.80
856.75	159.34
857.05	160.15
857.34	159.45
857.64	159.45
857.94	160.31
858.23	159.87
858.53	160.30
858.82	159.84
859.12	159.90
859.41	159.78
859.71	159.68
860.01	159.50
860.30	160.07
860.60	159.93
860.89	162.22
861.19	160.27
861.48	160.10
861.78	159.95
862.07	160.32
862.37	160.03
862.66	159.98
862.96	159.97
863.25	159.33
863.55	159.83
863.84	159.42
864.13	160.23
864.43	159.44
864.72	160.14
865.02	159.84
865.31	159.52
865.61	159.61
865.90	159.80
866.19	159.64
866.49	159.55
866.78	160.15
867.08	159.47
867.37	159.82
867.66	159.68
867.96	160.26
868.25	160.69
868.55	160.35
868.84	159.68
869.13	160.14
869.43	160.29
869.72	160.10
870.01	159.77
870.31	159.53
870.60	159.84
870.89	159.22
871.19	160.77
871.48	160.21
871.77	160.17
872.07	159.82
872.36	159.96
872.65	159.58
872.94	159.41
873.24	159.85
873.53	159.50
873.82	159.44
874.11	159.71
874.41	159.58
874.70	160.01
>>>>>End Processed Spectral Data<<<<<
