SpectraSuite Data File
++++++++++++++++++++++++++++++++++++
Date: Tue Jun 23 15:45:22 BST 2015
User: mpfc3
Dark Spectrum Present: No
Reference Spectrum Present: No
Number of Sampled Component Spectra: 1
Spectrometers: USB2E3636
Integration Time (usec): 30000 (USB2E3636)
Spectra Averaged: 100 (USB2E3636)
Boxcar Smoothing: 0 (USB2E3636)
Correct for Electrical Dark: No (USB2E3636)
Strobe/Lamp Enabled: No (USB2E3636)
Correct for Detector Non-linearity: No (USB2E3636)
Correct for Stray Light: No (USB2E3636)
Number of Pixels in Processed Spectrum: 2048
>>>>>Begin Processed Spectral Data<<<<<
180.28	0.00
180.65	144.51
181.02	145.27
181.39	145.85
181.77	147.11
182.14	148.45
182.51	148.98
182.88	148.85
183.25	149.86
183.63	150.08
184.00	150.16
184.37	152.22
184.74	150.69
185.11	150.30
185.49	150.70
185.86	150.84
186.23	150.68
186.60	150.90
186.97	150.76
187.35	150.36
187.72	150.90
188.09	150.60
188.46	150.53
188.83	150.35
189.20	150.91
189.58	152.30
189.95	152.33
190.32	152.07
190.69	153.02
191.06	152.27
191.43	152.22
191.81	152.76
192.18	152.60
192.55	152.43
192.92	152.89
193.29	153.31
193.66	152.47
194.03	152.95
194.41	152.65
194.78	152.20
195.15	152.85
195.52	152.84
195.89	152.97
196.26	153.04
196.63	153.22
197.01	153.42
197.38	153.65
197.75	152.72
198.12	153.03
198.49	153.17
198.86	153.19
199.23	153.14
199.60	153.46
199.98	153.34
200.35	153.13
200.72	153.30
201.09	153.41
201.46	153.80
201.83	154.22
202.20	153.46
202.57	153.67
202.94	153.69
203.31	153.67
203.69	153.91
204.06	154.71
204.43	153.58
204.80	153.68
205.17	154.07
205.54	153.73
205.91	154.39
206.28	153.90
206.65	153.85
207.02	153.90
207.39	153.78
207.76	154.20
208.14	154.61
208.51	154.00
208.88	154.91
209.25	154.29
209.62	154.13
209.99	154.10
210.36	154.29
210.73	154.28
211.10	154.20
211.47	154.36
211.84	154.34
212.21	154.09
212.58	154.34
212.95	154.22
213.32	154.24
213.69	154.06
214.06	154.34
214.43	154.40
214.80	154.30
215.17	154.44
215.55	154.64
215.92	154.77
216.29	154.36
216.66	154.66
217.03	154.15
217.40	154.25
217.77	154.71
218.14	154.52
218.51	154.67
218.88	154.98
219.25	154.62
219.62	154.45
219.99	155.04
220.36	155.27
220.73	155.62
221.10	154.80
221.47	154.79
221.84	154.49
222.21	155.22
222.58	154.42
222.95	154.98
223.32	154.27
223.69	155.09
224.06	154.99
224.43	154.78
224.80	155.19
225.17	154.77
225.54	154.70
225.91	155.21
226.27	163.85
226.64	155.10
227.01	154.61
227.38	154.61
227.75	155.58
228.12	154.72
228.49	155.90
228.86	154.61
229.23	155.14
229.60	154.83
229.97	155.00
230.34	154.65
230.71	155.04
231.08	155.53
231.45	155.12
231.82	155.09
232.19	155.18
232.56	154.40
232.93	155.36
233.30	155.18
233.66	155.27
234.03	155.35
234.40	155.17
234.77	155.06
235.14	155.19
235.51	154.84
235.88	155.01
236.25	154.57
236.62	155.89
236.99	155.28
237.36	155.09
237.73	155.08
238.09	155.41
238.46	154.93
238.83	155.22
239.20	155.02
239.57	155.67
239.94	155.06
240.31	155.21
240.68	155.41
241.05	155.46
241.41	155.72
241.78	155.36
242.15	154.95
242.52	155.23
242.89	155.25
243.26	155.14
243.63	155.36
244.00	155.56
244.36	155.22
244.73	155.65
245.10	155.52
245.47	155.63
245.84	155.36
246.21	155.68
246.58	155.85
246.94	155.53
247.31	155.24
247.68	155.77
248.05	155.30
248.42	155.66
248.79	155.77
249.15	155.08
249.52	154.84
249.89	155.43
250.26	156.24
250.63	155.23
251.00	155.99
251.36	155.34
251.73	155.86
252.10	155.99
252.47	155.13
252.84	155.58
253.20	155.54
253.57	155.23
253.94	155.43
254.31	155.98
254.68	154.97
255.05	155.16
255.41	155.12
255.78	155.52
256.15	154.88
256.52	155.94
256.88	155.52
257.25	155.42
257.62	154.75
257.99	155.48
258.36	156.54
258.72	155.68
259.09	155.28
259.46	155.48
259.83	155.84
260.19	155.48
260.56	155.55
260.93	154.88
261.30	155.93
261.67	155.64
262.03	155.16
262.40	155.62
262.77	155.38
263.14	155.51
263.50	155.92
263.87	154.69
264.24	155.54
264.61	155.38
264.97	155.11
265.34	155.64
265.71	155.98
266.07	155.44
266.44	155.64
266.81	155.76
267.18	155.65
267.54	155.58
267.91	156.54
268.28	155.79
268.64	155.28
269.01	155.43
269.38	155.83
269.75	155.51
270.11	155.24
270.48	155.89
270.85	155.65
271.21	155.80
271.58	155.34
271.95	155.32
272.32	155.98
272.68	155.67
273.05	154.76
273.42	155.19
273.78	155.74
274.15	155.74
274.52	155.12
274.88	155.70
275.25	155.90
275.62	155.61
275.98	155.48
276.35	155.45
276.72	156.09
277.08	155.96
277.45	156.25
277.82	155.80
278.18	155.75
278.55	155.31
278.92	155.83
279.28	155.10
279.65	156.00
280.01	155.19
280.38	155.67
280.75	156.04
281.11	155.45
281.48	155.78
281.85	155.93
282.21	155.48
282.58	155.16
282.95	155.79
283.31	156.22
283.68	156.22
284.04	155.51
284.41	156.17
284.78	155.93
285.14	158.18
285.51	157.09
285.87	155.61
286.24	155.46
286.61	155.99
286.97	155.71
287.34	155.69
287.70	155.57
288.07	155.79
288.44	155.21
288.80	156.21
289.17	155.76
289.53	155.48
289.90	156.54
290.26	156.03
290.63	155.56
291.00	156.38
291.36	156.16
291.73	155.71
292.09	156.45
292.46	156.19
292.82	156.21
293.19	155.83
293.56	156.22
293.92	155.85
294.29	155.57
294.65	155.78
295.02	155.44
295.38	155.63
295.75	156.46
296.11	155.77
296.48	156.31
296.84	156.37
297.21	155.74
297.57	156.15
297.94	156.16
298.30	155.59
298.67	155.88
299.04	155.41
299.40	155.83
299.77	155.57
300.13	155.55
300.50	155.89
300.86	155.58
301.23	156.26
301.59	155.27
301.96	155.71
302.32	156.01
302.69	156.25
303.05	156.22
303.42	155.72
303.78	155.75
304.14	155.77
304.51	155.94
304.87	155.56
305.24	155.70
305.60	156.32
305.97	156.00
306.33	155.44
306.70	156.20
307.06	156.35
307.43	157.04
307.79	155.90
308.16	155.43
308.52	155.92
308.88	156.12
309.25	155.62
309.61	155.89
309.98	155.75
310.34	155.79
310.71	155.98
311.07	156.63
311.44	155.52
311.80	155.76
312.16	156.08
312.53	155.81
312.89	156.57
313.26	155.86
313.62	155.38
313.98	156.25
314.35	155.54
314.71	156.64
315.08	156.03
315.44	156.24
315.80	155.98
316.17	155.86
316.53	158.12
316.90	155.99
317.26	156.57
317.62	155.79
317.99	155.89
318.35	156.66
318.72	156.09
319.08	155.95
319.44	155.76
319.81	155.77
320.17	156.48
320.53	155.98
320.90	156.21
321.26	155.94
321.62	156.26
321.99	156.21
322.35	156.81
322.72	156.00
323.08	155.41
323.44	155.71
323.81	156.51
324.17	155.78
324.53	156.59
324.90	155.63
325.26	156.09
325.62	156.22
325.99	155.78
326.35	155.96
326.71	156.01
327.08	155.92
327.44	156.07
327.80	155.62
328.16	157.16
328.53	155.88
328.89	156.27
329.25	155.93
329.62	155.60
329.98	156.58
330.34	156.23
330.71	155.92
331.07	156.22
331.43	156.27
331.79	156.38
332.16	155.81
332.52	155.70
332.88	155.99
333.24	156.06
333.61	155.82
333.97	155.76
334.33	156.09
334.70	155.75
335.06	155.54
335.42	156.19
335.78	157.63
336.15	156.25
336.51	156.16
336.87	156.32
337.23	155.86
337.60	155.78
337.96	155.95
338.32	155.82
338.68	156.03
339.04	156.41
339.41	156.27
339.77	156.82
340.13	156.27
340.49	156.18
340.86	156.42
341.22	156.32
341.58	156.04
341.94	155.85
342.30	155.90
342.67	156.26
343.03	155.78
343.39	156.19
343.75	155.62
344.11	156.06
344.48	155.86
344.84	156.23
345.20	156.43
345.56	155.75
345.92	156.38
346.28	155.70
346.65	157.14
347.01	156.36
347.37	155.81
347.73	156.47
348.09	156.42
348.45	156.46
348.82	156.77
349.18	156.05
349.54	156.12
349.90	155.77
350.26	156.17
350.62	156.32
350.98	156.09
351.35	156.25
351.71	155.99
352.07	156.31
352.43	155.61
352.79	156.02
353.15	156.60
353.51	157.27
353.87	156.09
354.24	155.81
354.60	156.10
354.96	156.12
355.32	156.42
355.68	156.07
356.04	156.41
356.40	156.56
356.76	156.49
357.12	155.95
357.48	155.84
357.85	156.44
358.21	156.34
358.57	156.21
358.93	156.34
359.29	156.07
359.65	155.78
360.01	155.65
360.37	156.07
360.73	156.94
361.09	156.40
361.45	156.26
361.81	156.01
362.17	156.25
362.53	156.29
362.89	156.85
363.25	155.78
363.62	156.67
363.98	155.98
364.34	156.47
364.70	156.04
365.06	156.00
365.42	156.58
365.78	156.38
366.14	156.44
366.50	156.35
366.86	156.45
367.22	156.27
367.58	156.27
367.94	156.29
368.30	156.01
368.66	155.57
369.02	157.54
369.38	156.38
369.74	156.95
370.10	156.66
370.46	157.80
370.82	156.35
371.18	156.89
371.54	156.45
371.90	156.34
372.26	156.87
372.62	156.77
372.98	156.49
373.33	156.81
373.69	156.51
374.05	157.10
374.41	156.56
374.77	156.83
375.13	156.66
375.49	156.97
375.85	156.97
376.21	156.48
376.57	156.81
376.93	157.14
377.29	157.08
377.65	157.14
378.01	157.02
378.37	156.80
378.73	157.10
379.08	157.39
379.44	157.40
379.80	157.09
380.16	157.24
380.52	157.61
380.88	157.05
381.24	157.38
381.60	157.81
381.96	157.58
382.32	157.33
382.67	157.38
383.03	157.58
383.39	158.11
383.75	158.56
384.11	158.47
384.47	158.75
384.83	158.41
385.19	158.83
385.54	158.63
385.90	159.16
386.26	158.86
386.62	158.72
386.98	159.72
387.34	159.24
387.70	159.17
388.05	159.92
388.41	159.54
388.77	160.36
389.13	159.92
389.49	160.96
389.85	160.42
390.20	161.17
390.56	161.14
390.92	161.36
391.28	160.94
391.64	161.93
391.99	162.08
392.35	161.82
392.71	162.39
393.07	162.80
393.43	162.74
393.78	162.53
394.14	163.31
394.50	163.46
394.86	164.02
395.22	163.87
395.57	164.50
395.93	164.12
396.29	164.88
396.65	165.02
397.00	165.28
397.36	166.48
397.72	165.66
398.08	166.56
398.43	166.24
398.79	166.57
399.15	166.79
399.51	167.69
399.86	167.73
400.22	167.92
400.58	168.68
400.94	168.74
401.29	169.13
401.65	169.36
402.01	170.13
402.37	170.22
402.72	170.93
403.08	172.17
403.44	172.63
403.79	171.68
404.15	172.13
404.51	172.72
404.86	173.02
405.22	173.23
405.58	174.13
405.94	174.56
406.29	175.13
406.65	174.94
407.01	175.62
407.36	175.57
407.72	177.25
408.08	176.45
408.43	176.96
408.79	178.09
409.15	178.32
409.50	179.20
409.86	178.66
410.22	179.35
410.57	180.51
410.93	180.63
411.29	183.46
411.64	181.49
412.00	182.91
412.35	183.55
412.71	183.17
413.07	184.53
413.42	184.66
413.78	185.66
414.14	185.55
414.49	186.11
414.85	187.20
415.20	188.30
415.56	189.14
415.92	189.04
416.27	189.38
416.63	190.62
416.98	190.70
417.34	192.22
417.70	192.54
418.05	192.97
418.41	193.65
418.76	195.52
419.12	194.58
419.47	196.45
419.83	195.28
420.19	197.89
420.54	197.78
420.90	198.60
421.25	199.47
421.61	200.86
421.96	199.54
422.32	202.68
422.67	202.56
423.03	203.43
423.39	204.77
423.74	206.11
424.10	206.71
424.45	206.11
424.81	206.67
425.16	208.81
425.52	209.57
425.87	209.62
426.23	211.18
426.58	211.66
426.94	214.36
427.29	216.43
427.65	214.94
428.00	215.48
428.36	216.25
428.71	217.67
429.07	218.15
429.42	219.45
429.78	219.93
430.13	222.46
430.49	221.85
430.84	223.74
431.19	225.17
431.55	224.74
431.90	226.86
432.26	227.17
432.61	229.49
432.97	229.83
433.32	230.37
433.68	232.19
434.03	233.00
434.39	234.95
434.74	234.83
435.09	235.95
435.45	236.42
435.80	239.31
436.16	238.16
436.51	239.85
436.86	242.00
437.22	243.49
437.57	247.82
437.93	247.73
438.28	248.28
438.63	248.21
438.99	250.30
439.34	253.72
439.70	251.56
440.05	250.92
440.40	255.55
440.76	256.08
441.11	257.27
441.47	264.39
441.82	263.64
442.17	263.36
442.53	264.37
442.88	264.04
443.23	266.70
443.59	265.45
443.94	270.80
444.29	269.90
444.65	272.00
445.00	272.90
445.35	274.01
445.71	275.60
446.06	278.52
446.41	276.59
446.77	277.81
447.12	281.37
447.47	281.77
447.83	286.72
448.18	286.06
448.53	283.44
448.89	286.59
449.24	287.99
449.59	295.26
449.94	292.22
450.30	290.79
450.65	294.98
451.00	301.37
451.36	301.13
451.71	300.03
452.06	303.20
452.41	306.14
452.77	304.66
453.12	311.57
453.47	312.18
453.82	315.49
454.18	306.20
454.53	314.80
454.88	314.13
455.23	319.92
455.59	315.51
455.94	322.18
456.29	326.30
456.64	322.12
457.00	321.40
457.35	330.53
457.70	326.36
458.05	334.10
458.40	338.68
458.76	342.03
459.11	341.96
459.46	338.56
459.81	340.28
460.16	341.62
460.52	351.99
460.87	349.05
461.22	351.71
461.57	355.19
461.92	352.00
462.28	360.01
462.63	367.66
462.98	365.56
463.33	370.38
463.68	375.04
464.03	371.82
464.38	377.34
464.74	375.27
465.09	378.29
465.44	388.01
465.79	392.47
466.14	388.23
466.49	397.17
466.84	400.14
467.20	405.97
467.55	408.69
467.90	411.66
468.25	415.41
468.60	421.40
468.95	416.35
469.30	421.45
469.65	427.48
470.00	432.55
470.36	438.10
470.71	448.76
471.06	448.75
471.41	447.92
471.76	456.41
472.11	458.53
472.46	464.48
472.81	468.93
473.16	476.07
473.51	476.13
473.86	482.61
474.21	487.65
474.56	498.04
474.91	498.22
475.26	501.30
475.62	506.67
475.97	519.33
476.32	514.22
476.67	518.84
477.02	528.33
477.37	536.00
477.72	543.26
478.07	544.68
478.42	545.45
478.77	553.21
479.12	567.36
479.47	565.10
479.82	570.02
480.17	581.02
480.52	590.66
480.87	592.53
481.22	591.30
481.57	599.27
481.92	594.33
482.27	609.27
482.62	620.10
482.97	620.17
483.32	625.79
483.67	625.75
484.02	629.53
484.36	635.40
484.71	647.10
485.06	651.73
485.41	653.06
485.76	664.77
486.11	665.22
486.46	669.12
486.81	673.77
487.16	676.09
487.51	686.52
487.86	692.41
488.21	699.03
488.56	706.77
488.91	707.24
489.25	715.81
489.60	722.35
489.95	726.99
490.30	734.51
490.65	738.58
491.00	747.06
491.35	748.93
491.70	749.26
492.05	761.98
492.39	769.35
492.74	772.88
493.09	781.42
493.44	783.93
493.79	789.77
494.14	797.83
494.49	801.57
494.83	805.52
495.18	816.60
495.53	821.00
495.88	831.22
496.23	838.73
496.58	838.29
496.92	844.92
497.27	855.02
497.62	863.30
497.97	861.88
498.32	872.94
498.67	875.68
499.01	886.97
499.36	889.86
499.71	896.30
500.06	900.00
500.41	912.26
500.75	916.35
501.10	921.52
501.45	926.67
501.80	930.76
502.14	934.77
502.49	940.71
502.84	944.60
503.19	955.34
503.53	956.37
503.88	965.93
504.23	966.55
504.58	971.37
504.92	977.63
505.27	981.94
505.62	987.31
505.97	988.51
506.31	991.78
506.66	999.76
507.01	1002.56
507.36	1007.26
507.70	1008.22
508.05	1012.52
508.40	1016.80
508.74	1019.05
509.09	1020.12
509.44	1019.56
509.79	1020.53
510.13	1024.66
510.48	1025.36
510.83	1029.34
511.17	1029.18
511.52	1032.92
511.87	1035.75
512.21	1037.42
512.56	1036.74
512.91	1038.11
513.25	1045.27
513.60	1042.21
513.95	1049.17
514.29	1048.73
514.64	1053.16
514.98	1052.74
515.33	1054.19
515.68	1060.02
516.02	1061.87
516.37	1059.32
516.72	1060.16
517.06	1068.37
517.41	1069.73
517.75	1065.93
518.10	1069.85
518.45	1068.85
518.79	1072.47
519.14	1076.52
519.48	1077.58
519.83	1075.79
520.18	1075.45
520.52	1080.11
520.87	1083.14
521.21	1079.61
521.56	1079.39
521.90	1079.53
522.25	1080.81
522.60	1078.71
522.94	1084.46
523.29	1087.06
523.63	1081.29
523.98	1080.07
524.32	1084.72
524.67	1081.80
525.01	1077.68
525.36	1076.07
525.70	1082.44
526.05	1084.96
526.39	1073.89
526.74	1074.20
527.08	1074.29
527.43	1073.25
527.77	1070.70
528.12	1072.26
528.46	1068.57
528.81	1068.33
529.15	1065.04
529.50	1068.71
529.84	1059.14
530.19	1060.01
530.53	1053.42
530.88	1047.97
531.22	1052.16
531.57	1045.81
531.91	1041.13
532.26	1037.98
532.60	1032.64
532.94	1027.80
533.29	1025.39
533.63	1020.85
533.98	1014.61
534.32	1014.29
534.67	1007.28
535.01	998.41
535.35	994.43
535.70	985.29
536.04	979.53
536.39	976.43
536.73	967.86
537.07	963.33
537.42	959.52
537.76	952.86
538.11	943.33
538.45	938.06
538.79	933.50
539.14	928.14
539.48	921.60
539.82	915.10
540.17	914.32
540.51	909.39
540.85	901.20
541.20	897.90
541.54	892.09
541.89	887.73
542.23	883.70
542.57	882.80
542.92	880.70
543.26	878.92
543.60	882.20
543.94	878.86
544.29	876.41
544.63	872.10
544.97	877.39
545.32	878.92
545.66	876.51
546.00	878.43
546.35	879.36
546.69	884.35
547.03	880.73
547.37	882.74
547.72	883.60
548.06	889.86
548.40	891.07
548.75	896.19
549.09	898.96
549.43	903.25
549.77	906.13
550.12	906.14
550.46	915.75
550.80	914.77
551.14	925.39
551.49	931.07
551.83	940.19
552.17	940.71
552.51	944.57
552.85	953.36
553.20	956.31
553.54	966.91
553.88	975.39
554.22	979.26
554.56	996.97
554.91	1001.92
555.25	1007.61
555.59	1017.83
555.93	1025.37
556.27	1031.51
556.62	1044.17
556.96	1054.45
557.30	1060.36
557.64	1067.82
557.98	1075.69
558.32	1088.97
558.67	1097.19
559.01	1106.97
559.35	1113.40
559.69	1123.33
560.03	1135.12
560.37	1148.47
560.71	1149.96
561.05	1159.30
561.40	1161.79
561.74	1175.42
562.08	1179.91
562.42	1185.15
562.76	1201.29
563.10	1203.75
563.44	1208.51
563.78	1215.40
564.12	1223.24
564.46	1227.84
564.81	1232.98
565.15	1239.16
565.49	1234.64
565.83	1244.07
566.17	1245.28
566.51	1246.10
566.85	1248.59
567.19	1252.27
567.53	1254.52
567.87	1260.48
568.21	1261.39
568.55	1255.89
568.89	1256.80
569.23	1262.72
569.57	1258.76
569.91	1256.77
570.25	1252.86
570.59	1261.10
570.93	1256.84
571.27	1252.67
571.61	1249.38
571.95	1251.16
572.29	1248.76
572.63	1249.67
572.97	1248.22
573.31	1239.36
573.65	1233.78
573.99	1233.51
574.33	1226.14
574.67	1226.56
575.01	1215.66
575.35	1212.76
575.69	1211.91
576.03	1213.44
576.37	1204.15
576.71	1204.96
577.05	1190.90
577.39	1186.56
577.73	1183.23
578.06	1181.58
578.40	1173.95
578.74	1165.90
579.08	1160.35
579.42	1159.87
579.76	1144.93
580.10	1143.55
580.44	1136.60
580.78	1130.18
581.12	1121.58
581.45	1123.45
581.79	1114.11
582.13	1101.90
582.47	1101.80
582.81	1093.04
583.15	1091.13
583.49	1081.36
583.83	1077.34
584.16	1071.96
584.50	1071.21
584.84	1067.45
585.18	1056.64
585.52	1052.15
585.86	1050.94
586.19	1044.36
586.53	1040.07
586.87	1033.39
587.21	1022.04
587.55	1025.53
587.88	1022.47
588.22	1012.50
588.56	1007.08
588.90	998.64
589.24	995.19
589.57	988.31
589.91	984.89
590.25	975.15
590.59	967.22
590.92	963.06
591.26	956.15
591.60	947.48
591.94	938.77
592.27	930.27
592.61	920.75
592.95	914.15
593.29	908.18
593.62	898.47
593.96	887.59
594.30	881.72
594.64	870.72
594.97	861.29
595.31	849.46
595.65	834.80
595.98	824.07
596.32	809.49
596.66	799.56
597.00	787.64
597.33	773.33
597.67	754.96
598.01	744.50
598.34	729.66
598.68	714.46
599.02	698.33
599.35	684.23
599.69	673.99
600.03	660.84
600.36	647.84
600.70	637.99
601.03	625.28
601.37	616.27
601.71	606.44
602.04	594.40
602.38	581.07
602.72	572.95
603.05	565.43
603.39	552.54
603.72	543.68
604.06	532.50
604.40	523.80
604.73	510.61
605.07	502.90
605.40	491.50
605.74	481.17
606.08	469.13
606.41	459.39
606.75	450.23
607.08	439.80
607.42	429.74
607.75	420.12
608.09	409.06
608.42	398.68
608.76	388.04
609.10	379.84
609.43	369.09
609.77	359.49
610.10	349.16
610.44	341.73
610.77	332.09
611.11	324.64
611.44	316.21
611.78	307.63
612.11	301.00
612.45	294.09
612.78	286.44
613.12	279.57
613.45	272.31
613.79	266.69
614.12	260.04
614.46	255.79
614.79	250.33
615.13	245.48
615.46	241.29
615.79	237.06
616.13	233.71
616.46	229.42
616.80	226.19
617.13	223.17
617.47	219.85
617.80	217.06
618.13	215.30
618.47	211.71
618.80	210.07
619.14	207.67
619.47	205.75
619.81	203.94
620.14	202.10
620.47	200.52
620.81	199.73
621.14	197.89
621.47	196.15
621.81	195.46
622.14	194.35
622.48	193.35
622.81	192.61
623.14	191.74
623.48	191.16
623.81	190.29
624.14	189.12
624.48	188.52
624.81	187.70
625.14	188.02
625.48	187.38
625.81	187.83
626.14	187.60
626.48	187.84
626.81	187.80
627.14	187.89
627.48	187.97
627.81	188.91
628.14	189.91
628.47	191.98
628.81	191.02
629.14	191.92
629.47	193.13
629.81	195.65
630.14	196.08
630.47	197.08
630.80	199.22
631.14	201.21
631.47	204.03
631.80	205.53
632.13	209.08
632.47	211.53
632.80	214.85
633.13	218.84
633.46	221.98
633.79	225.57
634.13	229.98
634.46	234.79
634.79	240.12
635.12	244.41
635.45	249.04
635.79	255.95
636.12	262.45
636.45	266.87
636.78	274.31
637.11	280.87
637.45	287.14
637.78	295.16
638.11	303.08
638.44	310.41
638.77	319.32
639.10	327.70
639.44	333.83
639.77	344.18
640.10	353.17
640.43	360.92
640.76	370.25
641.09	378.29
641.42	387.10
641.75	395.36
642.08	405.32
642.42	413.57
642.75	421.97
643.08	432.17
643.41	440.85
643.74	447.79
644.07	456.06
644.40	463.93
644.73	470.07
645.06	479.67
645.39	486.97
645.72	494.92
646.05	498.85
646.38	507.78
646.72	514.74
647.05	521.12
647.38	526.99
647.71	530.46
648.04	537.22
648.37	540.90
648.70	543.15
649.03	549.89
649.36	552.10
649.69	553.89
650.02	556.87
650.35	560.12
650.68	560.18
651.01	558.21
651.34	558.37
651.67	556.20
652.00	558.37
652.33	552.50
652.66	551.14
652.99	544.88
653.31	543.84
653.64	535.33
653.97	529.62
654.30	526.22
654.63	515.96
654.96	506.40
655.29	502.60
655.62	491.84
655.95	483.38
656.28	475.79
656.61	466.21
656.94	457.15
657.27	447.88
657.60	439.01
657.92	432.02
658.25	423.19
658.58	415.26
658.91	406.75
659.24	400.46
659.57	392.09
659.90	384.79
660.23	377.31
660.55	371.44
660.88	364.96
661.21	358.10
661.54	352.93
661.87	346.90
662.20	340.17
662.52	334.21
662.85	330.21
663.18	322.14
663.51	318.00
663.84	311.95
664.16	305.83
664.49	303.41
664.82	299.17
665.15	295.17
665.48	291.32
665.80	286.31
666.13	282.76
666.46	280.43
666.79	275.61
667.12	273.00
667.44	269.77
667.77	266.45
668.10	263.43
668.43	261.00
668.75	258.58
669.08	256.85
669.41	252.95
669.73	251.20
670.06	249.43
670.39	246.97
670.72	245.35
671.04	244.25
671.37	242.45
671.70	241.10
672.02	239.56
672.35	238.30
672.68	237.11
673.00	236.13
673.33	235.04
673.66	233.34
673.98	232.39
674.31	232.31
674.64	230.23
674.96	230.70
675.29	229.82
675.62	228.40
675.94	227.79
676.27	227.05
676.60	227.22
676.92	226.50
677.25	226.17
677.58	227.17
677.90	224.96
678.23	224.45
678.55	223.78
678.88	225.10
679.21	222.89
679.53	223.05
679.86	222.56
680.18	221.89
680.51	221.14
680.83	221.17
681.16	221.51
681.49	219.59
681.81	218.87
682.14	217.88
682.46	217.20
682.79	217.02
683.11	215.94
683.44	215.33
683.76	215.24
684.09	214.93
684.41	213.65
684.74	213.57
685.06	212.48
685.39	211.86
685.71	211.38
686.04	211.23
686.36	211.50
686.69	210.11
687.01	209.82
687.34	209.81
687.66	208.36
687.99	208.22
688.31	207.76
688.64	207.37
688.96	206.42
689.29	205.79
689.61	205.18
689.93	203.92
690.26	203.08
690.58	202.53
690.91	202.29
691.23	201.09
691.56	199.98
691.88	198.50
692.20	197.24
692.53	196.18
692.85	194.81
693.18	193.71
693.50	192.30
693.82	190.74
694.15	189.49
694.47	188.39
694.79	186.51
695.12	185.53
695.44	183.38
695.76	182.93
696.09	180.84
696.41	179.40
696.73	178.96
697.06	176.58
697.38	175.49
697.70	173.72
698.03	172.34
698.35	171.63
698.67	169.54
699.00	168.85
699.32	168.20
699.64	166.99
699.97	165.83
700.29	165.18
700.61	164.26
700.93	162.97
701.26	162.28
701.58	162.06
701.90	161.26
702.22	160.43
702.55	159.86
702.87	159.34
703.19	159.27
703.51	159.23
703.84	158.32
704.16	157.81
704.48	157.69
704.80	157.28
705.13	156.84
705.45	157.73
705.77	157.01
706.09	156.98
706.41	156.52
706.74	156.25
707.06	156.12
707.38	155.86
707.70	155.94
708.02	155.77
708.34	155.72
708.67	156.02
708.99	155.50
709.31	155.81
709.63	155.56
709.95	155.13
710.27	155.45
710.59	155.29
710.92	155.82
711.24	154.81
711.56	154.79
711.88	154.96
712.20	155.09
712.52	155.09
712.84	154.67
713.16	154.81
713.48	154.75
713.80	155.04
714.12	155.40
714.45	155.00
714.77	154.94
715.09	154.39
715.41	154.78
715.73	154.27
716.05	154.55
716.37	154.46
716.69	154.18
717.01	154.95
717.33	156.23
717.65	154.42
717.97	154.30
718.29	154.62
718.61	154.44
718.93	154.64
719.25	155.08
719.57	153.97
719.89	154.17
720.21	154.47
720.53	154.29
720.85	154.31
721.17	154.51
721.49	154.37
721.81	154.55
722.13	154.28
722.45	154.19
722.77	154.04
723.09	153.97
723.41	154.56
723.72	153.94
724.04	154.46
724.36	154.39
724.68	154.48
725.00	155.08
725.32	154.16
725.64	154.16
725.96	154.22
726.28	153.73
726.60	154.35
726.91	154.00
727.23	154.06
727.55	154.36
727.87	153.98
728.19	154.20
728.51	154.28
728.83	154.29
729.14	154.04
729.46	153.93
729.78	154.67
730.10	154.42
730.42	153.83
730.74	154.45
731.05	153.61
731.37	154.07
731.69	153.68
732.01	154.25
732.33	154.20
732.64	154.66
732.96	153.93
733.28	154.72
733.60	153.76
733.92	153.90
734.23	154.11
734.55	154.37
734.87	153.64
735.19	154.26
735.50	154.07
735.82	154.14
736.14	153.58
736.45	153.99
736.77	153.77
737.09	154.05
737.41	154.32
737.72	154.61
738.04	153.94
738.36	154.33
738.67	154.54
738.99	153.76
739.31	154.17
739.63	154.01
739.94	154.42
740.26	153.76
740.58	154.54
740.89	154.39
741.21	154.10
741.52	154.33
741.84	153.57
742.16	154.06
742.47	154.08
742.79	153.74
743.11	154.71
743.42	154.45
743.74	160.14
744.05	154.16
744.37	153.74
744.69	153.86
745.00	154.03
745.32	154.26
745.63	154.29
745.95	153.31
746.27	153.53
746.58	153.65
746.90	153.54
747.21	153.46
747.53	153.50
747.84	153.66
748.16	153.83
748.47	153.59
748.79	153.79
749.10	153.30
749.42	153.84
749.74	154.46
750.05	153.74
750.37	153.98
750.68	153.57
751.00	154.04
751.31	153.58
751.62	153.84
751.94	153.22
752.25	154.19
752.57	153.84
752.88	154.46
753.20	153.83
753.51	153.44
753.83	154.06
754.14	153.34
754.46	153.36
754.77	153.40
755.08	154.09
755.40	153.94
755.71	153.67
756.03	153.42
756.34	153.87
756.66	153.37
756.97	153.66
757.28	153.29
757.60	153.46
757.91	153.82
758.22	153.57
758.54	153.48
758.85	153.15
759.17	153.09
759.48	153.90
759.79	153.49
760.11	153.50
760.42	153.85
760.73	153.41
761.05	153.95
761.36	153.25
761.67	153.94
761.99	153.91
762.30	153.37
762.61	153.81
762.92	153.50
763.24	153.23
763.55	153.61
763.86	153.74
764.18	153.66
764.49	153.68
764.80	153.57
765.11	153.60
765.43	153.46
765.74	153.94
766.05	153.66
766.36	153.76
766.68	153.76
766.99	153.89
767.30	153.44
767.61	153.58
767.93	154.11
768.24	153.57
768.55	153.72
768.86	153.30
769.17	153.49
769.49	154.36
769.80	154.11
770.11	153.99
770.42	153.45
770.73	153.18
771.04	153.53
771.36	153.66
771.67	153.56
771.98	153.01
772.29	153.53
772.60	153.44
772.91	153.83
773.22	153.78
773.54	152.75
773.85	154.01
774.16	153.58
774.47	153.37
774.78	153.82
775.09	153.23
775.40	153.36
775.71	153.72
776.02	153.62
776.33	153.05
776.64	153.77
776.96	153.53
777.27	153.15
777.58	153.68
777.89	153.40
778.20	153.34
778.51	153.23
778.82	153.84
779.13	154.30
779.44	153.14
779.75	153.73
780.06	153.35
780.37	153.06
780.68	154.04
780.99	153.29
781.30	153.50
781.61	153.75
781.92	153.49
782.23	153.71
782.54	153.22
782.85	153.34
783.16	153.57
783.47	153.73
783.78	153.37
784.08	152.79
784.39	153.04
784.70	153.34
785.01	152.98
785.32	153.45
785.63	153.98
785.94	153.45
786.25	153.37
786.56	153.13
786.87	153.29
787.18	153.82
787.48	153.35
787.79	153.10
788.10	152.77
788.41	153.20
788.72	154.01
789.03	153.35
789.34	153.08
789.64	152.95
789.95	153.38
790.26	153.40
790.57	153.81
790.88	153.20
791.19	153.15
791.49	153.31
791.80	154.84
792.11	153.08
792.42	153.07
792.73	153.17
793.03	153.12
793.34	152.99
793.65	154.03
793.96	153.70
794.27	152.94
794.57	153.47
794.88	153.52
795.19	153.16
795.50	153.28
795.80	153.83
796.11	153.29
796.42	153.36
796.72	153.25
797.03	153.51
797.34	153.75
797.65	153.01
797.95	154.14
798.26	153.27
798.57	153.02
798.87	152.98
799.18	153.32
799.49	153.40
799.79	153.08
800.10	153.19
800.41	152.94
800.71	152.74
801.02	153.04
801.33	152.88
801.63	153.40
801.94	153.16
802.24	154.14
802.55	153.61
802.86	153.22
803.16	153.19
803.47	153.27
803.77	152.64
804.08	152.69
804.39	153.02
804.69	153.26
805.00	153.00
805.30	152.82
805.61	152.94
805.91	153.08
806.22	153.03
806.53	155.31
806.83	152.77
807.14	153.01
807.44	153.12
807.75	153.20
808.05	153.06
808.36	152.93
808.66	153.84
808.97	152.94
809.27	152.76
809.58	152.82
809.88	154.02
810.19	153.19
810.49	153.05
810.80	153.09
811.10	153.46
811.41	152.87
811.71	153.80
812.01	153.16
812.32	152.95
812.62	153.37
812.93	153.01
813.23	153.51
813.54	152.90
813.84	152.86
814.14	152.76
814.45	152.97
814.75	152.26
815.06	153.40
815.36	153.15
815.66	154.08
815.97	153.28
816.27	154.05
816.58	153.12
816.88	153.07
817.18	153.15
817.49	153.13
817.79	153.47
818.09	153.28
818.40	153.10
818.70	152.91
819.00	152.73
819.31	153.11
819.61	153.38
819.91	153.79
820.21	153.67
820.52	152.84
820.82	152.81
821.12	153.58
821.43	152.96
821.73	153.27
822.03	152.96
822.33	153.11
822.64	153.87
822.94	153.45
823.24	152.89
823.54	153.12
823.85	152.98
824.15	153.38
824.45	153.02
824.75	152.98
825.05	153.03
825.36	153.35
825.66	152.99
825.96	153.22
826.26	153.18
826.56	153.11
826.87	152.97
827.17	153.86
827.47	153.33
827.77	153.01
828.07	153.29
828.37	153.70
828.67	153.32
828.98	153.10
829.28	153.51
829.58	152.91
829.88	153.24
830.18	154.42
830.48	153.95
830.78	152.95
831.08	153.62
831.38	153.13
831.69	153.37
831.99	153.33
832.29	153.37
832.59	153.43
832.89	153.60
833.19	153.39
833.49	153.47
833.79	153.14
834.09	155.33
834.39	153.02
834.69	153.23
834.99	152.99
835.29	152.57
835.59	153.28
835.89	153.81
836.19	152.96
836.49	153.79
836.79	153.37
837.09	152.59
837.39	152.82
837.69	153.19
837.99	153.67
838.29	152.97
838.59	153.23
838.89	153.46
839.19	153.96
839.49	153.18
839.79	152.79
840.09	153.22
840.39	153.10
840.68	153.23
840.98	152.70
841.28	152.66
841.58	153.15
841.88	153.01
842.18	152.86
842.48	152.98
842.78	153.45
843.08	154.37
843.37	152.82
843.67	153.89
843.97	152.93
844.27	153.15
844.57	153.10
844.87	152.91
845.16	152.95
845.46	153.19
845.76	152.44
846.06	152.60
846.36	153.42
846.66	153.14
846.95	152.76
847.25	153.19
847.55	152.92
847.85	153.17
848.14	152.98
848.44	152.98
848.74	152.94
849.04	153.35
849.33	152.70
849.63	152.96
849.93	153.17
850.23	153.07
850.52	152.70
850.82	152.96
851.12	153.25
851.42	153.23
851.71	153.39
852.01	153.34
852.31	153.30
852.60	152.63
852.90	152.72
853.20	152.70
853.49	153.16
853.79	152.66
854.09	153.49
854.38	153.82
854.68	153.10
854.98	153.01
855.27	153.33
855.57	152.79
855.86	153.50
856.16	153.03
856.46	153.28
856.75	152.63
857.05	153.70
857.34	153.11
857.64	152.77
857.94	153.84
858.23	153.39
858.53	153.46
858.82	153.06
859.12	152.49
859.41	152.74
859.71	152.56
860.01	152.83
860.30	152.67
860.60	153.13
860.89	155.25
861.19	153.34
861.48	153.26
861.78	152.50
862.07	152.98
862.37	153.17
862.66	153.08
862.96	153.33
863.25	153.24
863.55	153.55
863.84	153.30
864.13	153.24
864.43	153.13
864.72	153.36
865.02	152.92
865.31	153.47
865.61	152.68
865.90	153.00
866.19	153.45
866.49	152.98
866.78	153.29
867.08	153.18
867.37	153.07
867.66	152.83
867.96	153.27
868.25	153.79
868.55	153.58
868.84	152.90
869.13	153.43
869.43	153.38
869.72	152.64
870.01	153.16
870.31	153.14
870.60	153.15
870.89	153.20
871.19	153.49
871.48	153.00
871.77	152.90
872.07	153.23
872.36	153.36
872.65	153.32
872.94	153.08
873.24	153.70
873.53	153.02
873.82	153.14
874.11	153.48
874.41	153.24
874.70	153.52
>>>>>End Processed Spectral Data<<<<<
