SpectraSuite Data File
++++++++++++++++++++++++++++++++++++
Date: Tue Jun 23 15:47:25 BST 2015
User: mpfc3
Dark Spectrum Present: No
Reference Spectrum Present: No
Number of Sampled Component Spectra: 1
Spectrometers: USB2E3636
Integration Time (usec): 30000 (USB2E3636)
Spectra Averaged: 100 (USB2E3636)
Boxcar Smoothing: 0 (USB2E3636)
Correct for Electrical Dark: No (USB2E3636)
Strobe/Lamp Enabled: No (USB2E3636)
Correct for Detector Non-linearity: No (USB2E3636)
Correct for Stray Light: No (USB2E3636)
Number of Pixels in Processed Spectrum: 2048
>>>>>Begin Processed Spectral Data<<<<<
180.28	0.00
180.65	144.53
181.02	145.14
181.39	146.43
181.77	146.91
182.14	149.10
182.51	148.33
182.88	149.39
183.25	150.27
183.63	150.33
184.00	150.45
184.37	152.06
184.74	150.52
185.11	151.37
185.49	150.49
185.86	150.88
186.23	150.44
186.60	150.57
186.97	151.30
187.35	150.74
187.72	150.53
188.09	151.10
188.46	150.00
188.83	150.71
189.20	151.27
189.58	152.17
189.95	152.28
190.32	152.61
190.69	152.42
191.06	152.08
191.43	152.32
191.81	152.46
192.18	152.28
192.55	152.06
192.92	152.19
193.29	153.14
193.66	152.67
194.03	152.36
194.41	153.03
194.78	153.38
195.15	153.02
195.52	153.31
195.89	153.47
196.26	152.89
196.63	153.15
197.01	153.49
197.38	153.21
197.75	153.26
198.12	153.11
198.49	153.34
198.86	153.75
199.23	153.69
199.60	153.14
199.98	153.47
200.35	152.98
200.72	153.62
201.09	152.99
201.46	153.66
201.83	153.79
202.20	153.38
202.57	153.81
202.94	153.68
203.31	153.42
203.69	152.99
204.06	154.82
204.43	153.68
204.80	153.78
205.17	153.96
205.54	154.12
205.91	154.00
206.28	153.93
206.65	154.30
207.02	154.13
207.39	153.94
207.76	154.48
208.14	154.48
208.51	153.94
208.88	154.60
209.25	154.19
209.62	154.40
209.99	154.43
210.36	154.50
210.73	154.15
211.10	154.22
211.47	154.07
211.84	154.27
212.21	154.06
212.58	154.31
212.95	154.70
213.32	154.09
213.69	154.07
214.06	154.16
214.43	155.09
214.80	154.36
215.17	154.10
215.55	154.73
215.92	154.89
216.29	153.77
216.66	154.16
217.03	154.07
217.40	154.33
217.77	154.56
218.14	154.78
218.51	154.17
218.88	155.35
219.25	154.72
219.62	155.07
219.99	154.91
220.36	154.71
220.73	155.72
221.10	154.21
221.47	155.14
221.84	154.87
222.21	155.47
222.58	154.42
222.95	154.54
223.32	154.88
223.69	154.25
224.06	154.51
224.43	155.25
224.80	155.17
225.17	155.00
225.54	154.83
225.91	155.14
226.27	164.04
226.64	155.13
227.01	155.05
227.38	155.20
227.75	155.03
228.12	155.15
228.49	155.70
228.86	155.04
229.23	154.85
229.60	155.38
229.97	155.01
230.34	154.89
230.71	155.19
231.08	155.81
231.45	155.10
231.82	154.26
232.19	154.82
232.56	154.94
232.93	155.53
233.30	155.06
233.66	155.44
234.03	154.71
234.40	155.64
234.77	155.64
235.14	154.98
235.51	155.32
235.88	155.59
236.25	154.92
236.62	155.83
236.99	155.01
237.36	155.56
237.73	155.50
238.09	155.24
238.46	155.12
238.83	155.25
239.20	155.07
239.57	155.52
239.94	155.37
240.31	155.21
240.68	155.48
241.05	155.59
241.41	155.58
241.78	155.10
242.15	155.16
242.52	155.02
242.89	155.53
243.26	155.10
243.63	155.49
244.00	155.34
244.36	155.25
244.73	155.17
245.10	155.26
245.47	155.16
245.84	155.13
246.21	155.51
246.58	155.81
246.94	155.71
247.31	155.09
247.68	154.93
248.05	155.11
248.42	155.32
248.79	155.51
249.15	155.70
249.52	155.47
249.89	154.93
250.26	156.23
250.63	154.89
251.00	156.03
251.36	155.07
251.73	155.42
252.10	156.08
252.47	155.72
252.84	156.33
253.20	155.17
253.57	155.37
253.94	155.68
254.31	155.56
254.68	155.00
255.05	155.55
255.41	155.53
255.78	155.80
256.15	155.59
256.52	155.87
256.88	155.22
257.25	155.51
257.62	155.37
257.99	155.89
258.36	155.82
258.72	155.48
259.09	155.24
259.46	155.29
259.83	155.79
260.19	155.51
260.56	155.46
260.93	155.49
261.30	155.32
261.67	155.48
262.03	155.55
262.40	155.51
262.77	155.42
263.14	155.51
263.50	155.77
263.87	155.39
264.24	155.44
264.61	155.68
264.97	155.15
265.34	155.47
265.71	155.42
266.07	155.24
266.44	155.42
266.81	155.77
267.18	155.47
267.54	155.60
267.91	155.72
268.28	155.36
268.64	155.44
269.01	155.57
269.38	155.85
269.75	155.48
270.11	155.79
270.48	155.64
270.85	155.33
271.21	156.19
271.58	155.16
271.95	155.71
272.32	156.08
272.68	155.62
273.05	155.35
273.42	155.44
273.78	155.96
274.15	155.42
274.52	155.89
274.88	155.75
275.25	156.41
275.62	156.05
275.98	155.77
276.35	155.70
276.72	156.65
277.08	155.24
277.45	155.84
277.82	155.93
278.18	155.73
278.55	155.65
278.92	155.82
279.28	155.36
279.65	155.93
280.01	155.51
280.38	155.45
280.75	155.89
281.11	155.54
281.48	155.41
281.85	155.14
282.21	156.04
282.58	155.30
282.95	155.83
283.31	155.34
283.68	155.93
284.04	155.58
284.41	156.04
284.78	156.16
285.14	158.12
285.51	157.10
285.87	156.02
286.24	155.72
286.61	156.11
286.97	155.74
287.34	155.73
287.70	155.80
288.07	155.61
288.44	155.63
288.80	155.76
289.17	155.92
289.53	156.22
289.90	156.70
290.26	155.46
290.63	155.79
291.00	155.63
291.36	156.01
291.73	155.29
292.09	155.90
292.46	155.40
292.82	155.71
293.19	156.28
293.56	155.57
293.92	156.44
294.29	155.56
294.65	156.14
295.02	155.91
295.38	156.19
295.75	155.97
296.11	155.86
296.48	155.49
296.84	155.66
297.21	155.62
297.57	155.87
297.94	155.71
298.30	155.80
298.67	156.16
299.04	155.64
299.40	155.42
299.77	155.49
300.13	155.39
300.50	155.74
300.86	155.58
301.23	155.67
301.59	155.38
301.96	155.53
302.32	156.27
302.69	155.75
303.05	155.61
303.42	155.52
303.78	155.96
304.14	155.83
304.51	155.76
304.87	156.38
305.24	155.68
305.60	156.32
305.97	155.59
306.33	155.75
306.70	155.93
307.06	155.52
307.43	156.99
307.79	155.76
308.16	155.95
308.52	155.97
308.88	155.84
309.25	155.50
309.61	156.01
309.98	155.83
310.34	155.96
310.71	156.45
311.07	155.97
311.44	155.77
311.80	156.02
312.16	156.07
312.53	155.59
312.89	156.10
313.26	155.99
313.62	155.82
313.98	156.07
314.35	156.10
314.71	156.97
315.08	155.78
315.44	156.07
315.80	155.76
316.17	155.79
316.53	157.96
316.90	155.98
317.26	156.08
317.62	155.64
317.99	155.66
318.35	156.47
318.72	155.81
319.08	155.82
319.44	156.13
319.81	155.98
320.17	156.25
320.53	156.42
320.90	155.96
321.26	156.12
321.62	156.24
321.99	156.17
322.35	156.47
322.72	155.59
323.08	156.01
323.44	155.79
323.81	155.49
324.17	155.52
324.53	155.79
324.90	156.00
325.26	155.91
325.62	155.90
325.99	155.85
326.35	155.76
326.71	155.80
327.08	156.24
327.44	155.77
327.80	155.85
328.16	157.33
328.53	155.55
328.89	155.56
329.25	156.14
329.62	156.07
329.98	155.84
330.34	156.17
330.71	155.66
331.07	155.84
331.43	155.96
331.79	155.94
332.16	156.10
332.52	155.90
332.88	156.46
333.24	155.63
333.61	155.66
333.97	156.06
334.33	156.08
334.70	155.70
335.06	155.57
335.42	155.89
335.78	157.34
336.15	156.32
336.51	156.27
336.87	155.95
337.23	156.33
337.60	156.18
337.96	155.69
338.32	156.41
338.68	156.26
339.04	155.72
339.41	155.22
339.77	156.38
340.13	155.44
340.49	155.75
340.86	155.92
341.22	155.71
341.58	155.94
341.94	155.78
342.30	155.90
342.67	156.13
343.03	156.16
343.39	155.55
343.75	155.45
344.11	155.86
344.48	156.17
344.84	156.18
345.20	156.31
345.56	155.79
345.92	155.63
346.28	156.63
346.65	157.66
347.01	156.61
347.37	155.99
347.73	156.11
348.09	156.13
348.45	155.77
348.82	156.70
349.18	156.04
349.54	155.97
349.90	156.41
350.26	156.17
350.62	155.82
350.98	156.44
351.35	156.00
351.71	156.22
352.07	156.19
352.43	156.10
352.79	156.44
353.15	156.66
353.51	156.82
353.87	155.94
354.24	155.79
354.60	156.47
354.96	155.46
355.32	156.52
355.68	155.70
356.04	156.21
356.40	156.16
356.76	156.16
357.12	156.41
357.48	156.21
357.85	156.23
358.21	156.35
358.57	156.13
358.93	156.07
359.29	156.09
359.65	156.39
360.01	155.71
360.37	155.97
360.73	156.60
361.09	156.23
361.45	155.73
361.81	156.15
362.17	155.92
362.53	156.13
362.89	156.68
363.25	156.37
363.62	155.85
363.98	156.28
364.34	156.51
364.70	155.95
365.06	155.78
365.42	156.32
365.78	156.22
366.14	156.07
366.50	156.09
366.86	156.96
367.22	156.16
367.58	156.41
367.94	156.18
368.30	155.96
368.66	156.14
369.02	157.52
369.38	156.46
369.74	156.33
370.10	156.73
370.46	158.77
370.82	156.59
371.18	156.36
371.54	156.33
371.90	156.25
372.26	156.50
372.62	157.00
372.98	156.79
373.33	156.81
373.69	156.43
374.05	156.86
374.41	156.49
374.77	156.62
375.13	156.91
375.49	156.83
375.85	156.73
376.21	156.63
376.57	156.67
376.93	156.58
377.29	156.90
377.65	157.43
378.01	157.49
378.37	156.78
378.73	156.28
379.08	156.99
379.44	157.48
379.80	156.59
380.16	157.54
380.52	157.46
380.88	157.30
381.24	157.11
381.60	157.56
381.96	157.16
382.32	157.88
382.67	157.10
383.03	157.87
383.39	157.69
383.75	158.31
384.11	158.05
384.47	158.53
384.83	158.67
385.19	158.34
385.54	158.45
385.90	158.36
386.26	159.01
386.62	158.83
386.98	159.28
387.34	158.66
387.70	159.11
388.05	159.51
388.41	159.61
388.77	160.36
389.13	160.69
389.49	160.71
389.85	160.73
390.20	160.87
390.56	160.93
390.92	161.52
391.28	161.20
391.64	161.50
391.99	162.32
392.35	162.49
392.71	162.02
393.07	162.35
393.43	162.67
393.78	162.79
394.14	163.04
394.50	163.73
394.86	164.19
395.22	163.35
395.57	164.06
395.93	164.86
396.29	165.34
396.65	164.67
397.00	165.34
397.36	165.81
397.72	165.94
398.08	165.88
398.43	166.57
398.79	167.13
399.15	166.72
399.51	168.10
399.86	167.48
400.22	167.49
400.58	168.04
400.94	168.70
401.29	168.95
401.65	169.90
402.01	170.14
402.37	170.00
402.72	171.30
403.08	172.33
403.44	172.33
403.79	171.52
404.15	171.46
404.51	173.15
404.86	173.49
405.22	173.62
405.58	175.18
405.94	174.56
406.29	174.79
406.65	175.21
407.01	175.39
407.36	175.97
407.72	176.22
408.08	176.94
408.43	177.49
408.79	177.70
409.15	178.33
409.50	178.90
409.86	178.52
410.22	179.56
410.57	180.13
410.93	181.07
411.29	183.60
411.64	181.78
412.00	183.07
412.35	182.89
412.71	183.35
413.07	184.88
413.42	184.73
413.78	185.23
414.14	185.45
414.49	186.29
414.85	186.89
415.20	188.36
415.56	188.75
415.92	188.82
416.27	188.79
416.63	190.98
416.98	191.14
417.34	192.77
417.70	192.78
418.05	193.18
418.41	193.44
418.76	195.89
419.12	194.58
419.47	196.39
419.83	196.19
420.19	198.05
420.54	198.50
420.90	198.65
421.25	199.34
421.61	200.35
421.96	199.53
422.32	203.25
422.67	203.02
423.03	203.51
423.39	204.89
423.74	205.76
424.10	206.28
424.45	207.04
424.81	206.42
425.16	208.40
425.52	210.03
425.87	209.75
426.23	211.41
426.58	211.00
426.94	214.46
427.29	215.82
427.65	215.64
428.00	214.98
428.36	216.82
428.71	218.09
429.07	217.98
429.42	219.32
429.78	219.96
430.13	222.83
430.49	222.41
430.84	223.72
431.19	224.86
431.55	224.51
431.90	227.40
432.26	227.42
432.61	229.18
432.97	229.93
433.32	231.18
433.68	232.38
434.03	233.08
434.39	235.05
434.74	234.49
435.09	236.96
435.45	236.77
435.80	239.63
436.16	238.86
436.51	240.17
436.86	242.45
437.22	243.18
437.57	247.96
437.93	247.75
438.28	248.51
438.63	248.22
438.99	250.57
439.34	253.07
439.70	251.46
440.05	251.06
440.40	255.67
440.76	256.83
441.11	257.39
441.47	264.77
441.82	263.26
442.17	264.00
442.53	264.22
442.88	264.45
443.23	266.98
443.59	265.48
443.94	270.30
444.29	269.57
444.65	272.22
445.00	272.57
445.35	273.92
445.71	275.92
446.06	278.53
446.41	275.82
446.77	277.93
447.12	282.65
447.47	281.52
447.83	287.10
448.18	285.93
448.53	282.98
448.89	286.91
449.24	288.73
449.59	294.77
449.94	292.91
450.30	290.91
450.65	295.14
451.00	301.22
451.36	301.40
451.71	299.71
452.06	302.53
452.41	305.93
452.77	305.22
453.12	312.06
453.47	312.53
453.82	315.41
454.18	306.20
454.53	314.63
454.88	314.60
455.23	320.45
455.59	316.21
455.94	322.06
456.29	325.31
456.64	322.31
457.00	322.07
457.35	331.13
457.70	325.99
458.05	333.61
458.40	338.79
458.76	341.96
459.11	341.56
459.46	338.14
459.81	339.22
460.16	342.22
460.52	353.39
460.87	349.66
461.22	352.41
461.57	356.32
461.92	351.60
462.28	359.49
462.63	367.84
462.98	366.72
463.33	370.81
463.68	374.21
464.03	371.92
464.38	378.50
464.74	375.88
465.09	378.57
465.44	388.82
465.79	391.79
466.14	387.96
466.49	397.68
466.84	399.30
467.20	406.24
467.55	408.73
467.90	412.03
468.25	413.68
468.60	422.18
468.95	416.43
469.30	421.61
469.65	428.79
470.00	430.78
470.36	437.96
470.71	448.86
471.06	449.24
471.41	446.65
471.76	455.37
472.11	458.83
472.46	463.66
472.81	468.00
473.16	475.41
473.51	475.01
473.86	481.34
474.21	487.20
474.56	496.87
474.91	499.47
475.26	502.47
475.62	506.45
475.97	518.14
476.32	511.83
476.67	518.05
477.02	528.61
477.37	534.62
477.72	543.65
478.07	544.48
478.42	545.68
478.77	554.46
479.12	567.34
479.47	566.69
479.82	571.78
480.17	581.03
480.52	591.70
480.87	591.23
481.22	591.05
481.57	599.82
481.92	594.76
482.27	608.82
482.62	620.54
482.97	620.28
483.32	625.40
483.67	626.93
484.02	631.88
484.36	637.11
484.71	646.21
485.06	651.28
485.41	653.93
485.76	665.76
486.11	665.35
486.46	669.81
486.81	674.03
487.16	677.39
487.51	686.74
487.86	693.91
488.21	699.46
488.56	705.97
488.91	707.81
489.25	717.06
489.60	721.69
489.95	725.75
490.30	733.56
490.65	739.04
491.00	747.72
491.35	750.00
491.70	751.51
492.05	761.68
492.39	770.42
492.74	772.14
493.09	782.72
493.44	783.45
493.79	790.85
494.14	797.85
494.49	801.35
494.83	805.03
495.18	816.68
495.53	820.52
495.88	832.75
496.23	837.87
496.58	837.49
496.92	844.63
497.27	855.67
497.62	862.92
497.97	862.10
498.32	872.78
498.67	877.84
499.01	886.34
499.36	891.44
499.71	895.43
500.06	899.76
500.41	910.82
500.75	916.52
501.10	920.67
501.45	926.67
501.80	930.49
502.14	935.45
502.49	940.87
502.84	944.25
503.19	956.59
503.53	957.55
503.88	964.90
504.23	969.69
504.58	970.25
504.92	977.96
505.27	982.39
505.62	987.48
505.97	990.48
506.31	989.95
506.66	1000.86
507.01	1003.85
507.36	1007.91
507.70	1008.45
508.05	1013.40
508.40	1014.67
508.74	1019.84
509.09	1020.70
509.44	1019.13
509.79	1022.96
510.13	1025.17
510.48	1025.75
510.83	1030.58
511.17	1029.83
511.52	1031.52
511.87	1034.68
512.21	1037.59
512.56	1036.28
512.91	1039.05
513.25	1046.38
513.60	1041.92
513.95	1050.18
514.29	1048.86
514.64	1052.82
514.98	1052.13
515.33	1052.93
515.68	1057.58
516.02	1061.89
516.37	1056.58
516.72	1059.10
517.06	1068.59
517.41	1070.33
517.75	1064.58
518.10	1070.64
518.45	1070.37
518.79	1073.15
519.14	1077.64
519.48	1075.24
519.83	1076.34
520.18	1075.59
520.52	1078.50
520.87	1086.55
521.21	1081.42
521.56	1078.40
521.90	1079.45
522.25	1079.72
522.60	1079.42
522.94	1084.50
523.29	1087.72
523.63	1082.40
523.98	1081.53
524.32	1085.56
524.67	1083.27
525.01	1078.34
525.36	1077.68
525.70	1082.89
526.05	1083.63
526.39	1073.84
526.74	1076.75
527.08	1073.79
527.43	1072.66
527.77	1072.23
528.12	1072.07
528.46	1071.27
528.81	1068.14
529.15	1064.88
529.50	1068.83
529.84	1060.25
530.19	1061.79
530.53	1052.19
530.88	1047.49
531.22	1052.82
531.57	1046.01
531.91	1041.85
532.26	1038.00
532.60	1032.29
532.94	1026.58
533.29	1026.15
533.63	1021.84
533.98	1014.62
534.32	1014.82
534.67	1008.27
535.01	998.72
535.35	995.09
535.70	985.42
536.04	979.79
536.39	976.67
536.73	968.83
537.07	964.85
537.42	960.69
537.76	954.62
538.11	943.86
538.45	938.92
538.79	934.04
539.14	929.80
539.48	921.57
539.82	917.22
540.17	915.02
540.51	909.60
540.85	901.60
541.20	895.99
541.54	892.79
541.89	887.83
542.23	883.34
542.57	882.81
542.92	880.67
543.26	879.46
543.60	883.40
543.94	881.93
544.29	877.51
544.63	872.30
544.97	876.99
545.32	877.97
545.66	874.74
546.00	879.37
546.35	879.86
546.69	882.65
547.03	881.30
547.37	883.50
547.72	884.89
548.06	892.17
548.40	892.81
548.75	893.90
549.09	899.18
549.43	902.95
549.77	903.91
550.12	906.72
550.46	915.45
550.80	917.21
551.14	925.08
551.49	930.62
551.83	941.16
552.17	941.60
552.51	944.92
552.85	951.90
553.20	956.51
553.54	967.07
553.88	973.15
554.22	977.25
554.56	997.04
554.91	1001.19
555.25	1005.56
555.59	1018.74
555.93	1027.05
556.27	1033.27
556.62	1043.80
556.96	1054.83
557.30	1059.62
557.64	1067.09
557.98	1077.46
558.32	1088.68
558.67	1098.34
559.01	1107.79
559.35	1111.32
559.69	1121.61
560.03	1134.63
560.37	1149.05
560.71	1149.72
561.05	1159.52
561.40	1161.89
561.74	1177.07
562.08	1178.20
562.42	1185.64
562.76	1200.81
563.10	1204.68
563.44	1209.30
563.78	1215.22
564.12	1225.15
564.46	1228.15
564.81	1231.04
565.15	1238.24
565.49	1234.37
565.83	1244.11
566.17	1244.88
566.51	1246.73
566.85	1248.42
567.19	1252.58
567.53	1254.43
567.87	1260.66
568.21	1260.37
568.55	1255.96
568.89	1259.51
569.23	1262.44
569.57	1258.95
569.91	1257.36
570.25	1253.59
570.59	1262.22
570.93	1257.36
571.27	1253.23
571.61	1249.66
571.95	1250.81
572.29	1247.85
572.63	1249.13
572.97	1247.74
573.31	1240.37
573.65	1234.33
573.99	1233.54
574.33	1228.30
574.67	1226.19
575.01	1216.91
575.35	1218.42
575.69	1214.04
576.03	1212.84
576.37	1207.27
576.71	1203.09
577.05	1193.35
577.39	1185.75
577.73	1184.05
578.06	1182.83
578.40	1174.47
578.74	1167.73
579.08	1160.85
579.42	1157.76
579.76	1146.06
580.10	1144.45
580.44	1139.70
580.78	1130.77
581.12	1122.57
581.45	1120.18
581.79	1115.42
582.13	1101.58
582.47	1103.82
582.81	1096.27
583.15	1092.62
583.49	1082.38
583.83	1077.19
584.16	1073.49
584.50	1070.30
584.84	1067.00
585.18	1057.45
585.52	1051.44
585.86	1052.59
586.19	1044.18
586.53	1040.52
586.87	1034.52
587.21	1022.70
587.55	1026.39
587.88	1023.98
588.22	1014.49
588.56	1007.98
588.90	1001.55
589.24	997.00
589.57	989.11
589.91	984.65
590.25	974.34
590.59	966.26
590.92	964.62
591.26	956.56
591.60	946.20
591.94	938.85
592.27	931.73
592.61	921.67
592.95	914.89
593.29	908.47
593.62	897.90
593.96	888.24
594.30	882.26
594.64	873.10
594.97	862.22
595.31	851.09
595.65	837.44
595.98	825.29
596.32	809.83
596.66	800.24
597.00	786.72
597.33	775.33
597.67	755.18
598.01	744.89
598.34	730.04
598.68	714.64
599.02	698.23
599.35	684.69
599.69	675.37
600.03	662.70
600.36	649.11
600.70	639.74
601.03	625.70
601.37	617.52
601.71	607.54
602.04	594.48
602.38	583.53
602.72	575.36
603.05	564.49
603.39	554.73
603.72	544.16
604.06	533.07
604.40	524.26
604.73	511.53
605.07	503.28
605.40	491.80
605.74	482.12
606.08	470.74
606.41	459.95
606.75	451.38
607.08	439.23
607.42	429.95
607.75	420.09
608.09	408.99
608.42	399.23
608.76	389.45
609.10	380.78
609.43	369.43
609.77	358.64
610.10	351.47
610.44	341.23
610.77	333.09
611.11	325.47
611.44	316.57
611.78	308.55
612.11	299.85
612.45	293.76
612.78	286.50
613.12	279.47
613.45	272.67
613.79	267.01
614.12	261.33
614.46	255.47
614.79	250.55
615.13	246.57
615.46	241.45
615.79	237.53
616.13	233.60
616.46	229.31
616.80	226.30
617.13	222.96
617.47	219.85
617.80	216.74
618.13	215.43
618.47	212.25
618.80	210.21
619.14	208.09
619.47	206.09
619.81	204.66
620.14	202.24
620.47	200.60
620.81	199.19
621.14	198.44
621.47	197.34
621.81	195.44
622.14	194.85
622.48	193.44
622.81	192.38
623.14	191.56
623.48	191.01
623.81	189.47
624.14	189.14
624.48	188.44
624.81	187.84
625.14	187.69
625.48	187.45
625.81	187.50
626.14	187.13
626.48	187.77
626.81	187.74
627.14	187.04
627.48	188.49
627.81	188.30
628.14	190.14
628.47	191.75
628.81	191.45
629.14	192.29
629.47	193.50
629.81	195.41
630.14	195.31
630.47	197.29
630.80	199.14
631.14	201.66
631.47	204.39
631.80	206.07
632.13	209.02
632.47	211.89
632.80	215.33
633.13	218.76
633.46	222.41
633.79	225.69
634.13	230.03
634.46	234.41
634.79	240.49
635.12	243.89
635.45	249.82
635.79	255.22
636.12	261.24
636.45	267.28
636.78	273.49
637.11	281.34
637.45	286.97
637.78	294.43
638.11	303.44
638.44	310.67
638.77	319.17
639.10	327.15
639.44	334.28
639.77	343.50
640.10	352.80
640.43	359.96
640.76	370.88
641.09	378.41
641.42	386.25
641.75	395.01
642.08	404.37
642.42	413.14
642.75	422.43
643.08	431.53
643.41	440.37
643.74	447.98
644.07	455.84
644.40	463.27
644.73	470.43
645.06	479.48
645.39	487.13
645.72	495.16
646.05	499.50
646.38	507.35
646.72	515.06
647.05	520.33
647.38	527.85
647.71	530.62
648.04	536.97
648.37	540.56
648.70	543.28
649.03	548.82
649.36	551.13
649.69	553.86
650.02	556.74
650.35	559.89
650.68	559.48
651.01	557.45
651.34	558.73
651.67	556.74
652.00	557.28
652.33	552.36
652.66	550.46
652.99	546.83
653.31	542.96
653.64	535.43
653.97	530.91
654.30	525.82
654.63	516.23
654.96	507.54
655.29	503.07
655.62	492.80
655.95	485.66
656.28	475.20
656.61	467.49
656.94	458.03
657.27	448.88
657.60	439.64
657.92	432.37
658.25	423.05
658.58	415.40
658.91	407.00
659.24	399.89
659.57	391.96
659.90	385.53
660.23	378.09
660.55	371.94
660.88	364.48
661.21	358.40
661.54	351.79
661.87	346.17
662.20	340.01
662.52	334.89
662.85	330.38
663.18	323.17
663.51	318.23
663.84	312.87
664.16	306.89
664.49	303.68
664.82	298.86
665.15	295.15
665.48	291.16
665.80	287.04
666.13	283.77
666.46	280.38
666.79	275.63
667.12	273.41
667.44	270.10
667.77	266.70
668.10	264.04
668.43	261.40
668.75	258.38
669.08	256.44
669.41	253.98
669.73	252.09
670.06	249.80
670.39	247.57
670.72	245.78
671.04	243.96
671.37	242.22
671.70	241.04
672.02	239.11
672.35	238.01
672.68	237.47
673.00	236.28
673.33	235.07
673.66	233.92
673.98	232.48
674.31	231.68
674.64	230.35
674.96	230.28
675.29	229.13
675.62	227.88
675.94	227.82
676.27	227.59
676.60	227.19
676.92	226.65
677.25	226.54
677.58	226.40
677.90	225.48
678.23	224.62
678.55	224.40
678.88	225.14
679.21	223.46
679.53	222.88
679.86	222.99
680.18	222.22
680.51	221.25
680.83	219.98
681.16	221.22
681.49	219.00
681.81	218.43
682.14	217.81
682.46	217.57
682.79	216.14
683.11	216.20
683.44	214.33
683.76	214.56
684.09	214.32
684.41	214.13
684.74	213.40
685.06	212.40
685.39	211.94
685.71	211.32
686.04	211.19
686.36	211.03
686.69	210.80
687.01	209.79
687.34	210.24
687.66	209.21
687.99	208.45
688.31	207.84
688.64	206.96
688.96	206.83
689.29	206.26
689.61	205.40
689.93	203.89
690.26	203.03
690.58	202.73
690.91	202.24
691.23	201.12
691.56	199.53
691.88	198.48
692.20	196.59
692.53	195.81
692.85	195.03
693.18	193.74
693.50	192.13
693.82	190.60
694.15	189.11
694.47	187.80
694.79	186.70
695.12	185.88
695.44	183.80
695.76	182.33
696.09	180.47
696.41	179.99
696.73	179.74
697.06	176.86
697.38	174.75
697.70	173.94
698.03	173.16
698.35	171.41
698.67	170.06
699.00	168.92
699.32	168.40
699.64	167.09
699.97	166.28
700.29	164.73
700.61	164.20
700.93	163.60
701.26	162.41
701.58	161.85
701.90	161.22
702.22	160.50
702.55	160.20
702.87	159.44
703.19	158.66
703.51	158.81
703.84	158.34
704.16	158.33
704.48	157.87
704.80	157.73
705.13	157.22
705.45	157.91
705.77	156.80
706.09	157.95
706.41	156.58
706.74	156.19
707.06	156.21
707.38	155.64
707.70	155.83
708.02	155.28
708.34	155.50
708.67	155.94
708.99	155.13
709.31	155.48
709.63	155.42
709.95	155.06
710.27	155.05
710.59	155.13
710.92	155.59
711.24	155.58
711.56	154.84
711.88	155.04
712.20	155.63
712.52	154.96
712.84	154.85
713.16	154.54
713.48	154.47
713.80	154.69
714.12	155.22
714.45	154.77
714.77	154.67
715.09	153.98
715.41	154.47
715.73	154.64
716.05	154.97
716.37	154.21
716.69	154.65
717.01	154.36
717.33	155.75
717.65	154.77
717.97	154.70
718.29	154.65
718.61	154.69
718.93	154.25
719.25	154.40
719.57	154.80
719.89	154.51
720.21	154.75
720.53	154.48
720.85	154.00
721.17	154.19
721.49	154.54
721.81	154.22
722.13	154.12
722.45	154.24
722.77	154.46
723.09	154.32
723.41	154.38
723.72	154.08
724.04	154.16
724.36	154.44
724.68	154.56
725.00	155.07
725.32	154.53
725.64	154.46
725.96	154.78
726.28	154.23
726.60	154.36
726.91	154.59
727.23	154.82
727.55	154.53
727.87	154.15
728.19	153.76
728.51	154.28
728.83	154.25
729.14	154.00
729.46	154.51
729.78	154.39
730.10	154.94
730.42	154.41
730.74	154.33
731.05	153.66
731.37	154.17
731.69	154.41
732.01	154.17
732.33	154.02
732.64	154.57
732.96	154.05
733.28	154.07
733.60	154.00
733.92	154.59
734.23	154.13
734.55	154.39
734.87	153.87
735.19	154.01
735.50	153.87
735.82	154.03
736.14	154.18
736.45	154.36
736.77	153.83
737.09	153.79
737.41	154.34
737.72	154.35
738.04	154.18
738.36	154.29
738.67	154.48
738.99	153.41
739.31	153.96
739.63	153.80
739.94	153.97
740.26	153.41
740.58	154.18
740.89	153.64
741.21	154.30
741.52	154.05
741.84	153.73
742.16	153.54
742.47	153.95
742.79	154.11
743.11	154.38
743.42	154.01
743.74	160.29
744.05	153.78
744.37	153.93
744.69	153.92
745.00	154.38
745.32	154.83
745.63	154.33
745.95	153.88
746.27	153.86
746.58	153.85
746.90	154.01
747.21	153.71
747.53	154.01
747.84	153.76
748.16	153.94
748.47	153.38
748.79	153.83
749.10	153.69
749.42	153.92
749.74	154.08
750.05	153.54
750.37	153.90
750.68	153.69
751.00	154.00
751.31	153.54
751.62	153.91
751.94	153.33
752.25	153.66
752.57	153.57
752.88	154.32
753.20	153.73
753.51	154.09
753.83	154.21
754.14	154.13
754.46	153.42
754.77	154.50
755.08	153.50
755.40	153.72
755.71	153.44
756.03	153.33
756.34	153.59
756.66	153.35
756.97	154.24
757.28	153.86
757.60	153.69
757.91	153.50
758.22	154.15
758.54	153.44
758.85	153.78
759.17	152.95
759.48	153.23
759.79	153.57
760.11	153.53
760.42	153.59
760.73	153.32
761.05	153.55
761.36	153.42
761.67	153.42
761.99	153.65
762.30	153.53
762.61	153.49
762.92	153.69
763.24	153.49
763.55	153.91
763.86	153.96
764.18	153.44
764.49	153.72
764.80	153.86
765.11	153.29
765.43	153.81
765.74	153.74
766.05	154.17
766.36	153.40
766.68	153.75
766.99	153.67
767.30	154.14
767.61	153.29
767.93	153.74
768.24	153.60
768.55	153.70
768.86	153.53
769.17	152.99
769.49	153.48
769.80	153.53
770.11	153.95
770.42	153.71
770.73	153.44
771.04	153.85
771.36	153.68
771.67	153.61
771.98	153.43
772.29	153.47
772.60	154.30
772.91	153.62
773.22	153.57
773.54	153.36
773.85	153.47
774.16	153.77
774.47	153.20
774.78	154.10
775.09	153.38
775.40	153.76
775.71	152.50
776.02	153.99
776.33	153.35
776.64	153.35
776.96	153.42
777.27	153.34
777.58	153.87
777.89	153.82
778.20	153.77
778.51	153.69
778.82	153.40
779.13	154.15
779.44	153.26
779.75	153.68
780.06	153.43
780.37	153.23
780.68	154.09
780.99	153.67
781.30	153.08
781.61	153.33
781.92	152.91
782.23	153.51
782.54	153.07
782.85	153.60
783.16	153.48
783.47	153.25
783.78	153.41
784.08	153.18
784.39	152.99
784.70	153.51
785.01	153.33
785.32	153.06
785.63	153.43
785.94	153.67
786.25	153.18
786.56	153.72
786.87	153.02
787.18	153.25
787.48	153.47
787.79	153.68
788.10	153.15
788.41	153.22
788.72	153.47
789.03	153.16
789.34	153.37
789.64	153.67
789.95	153.55
790.26	152.79
790.57	153.61
790.88	153.91
791.19	153.13
791.49	153.39
791.80	155.10
792.11	153.54
792.42	153.22
792.73	153.14
793.03	153.42
793.34	153.41
793.65	154.04
793.96	153.12
794.27	153.20
794.57	153.69
794.88	153.04
795.19	153.12
795.50	153.59
795.80	153.31
796.11	153.40
796.42	153.20
796.72	152.86
797.03	153.05
797.34	153.60
797.65	153.04
797.95	154.07
798.26	153.49
798.57	153.12
798.87	153.41
799.18	153.26
799.49	153.76
799.79	153.49
800.10	153.20
800.41	153.19
800.71	153.35
801.02	153.26
801.33	153.06
801.63	153.38
801.94	152.88
802.24	153.77
802.55	153.50
802.86	152.85
803.16	153.27
803.47	153.24
803.77	153.23
804.08	152.64
804.39	153.22
804.69	152.89
805.00	153.11
805.30	153.21
805.61	152.86
805.91	153.04
806.22	152.88
806.53	154.86
806.83	153.24
807.14	153.37
807.44	153.13
807.75	153.04
808.05	153.41
808.36	153.13
808.66	153.46
808.97	153.54
809.27	153.30
809.58	153.50
809.88	153.63
810.19	152.88
810.49	153.42
810.80	153.19
811.10	153.49
811.41	153.07
811.71	153.57
812.01	153.35
812.32	153.33
812.62	153.38
812.93	153.23
813.23	153.07
813.54	153.29
813.84	153.10
814.14	153.10
814.45	153.26
814.75	153.29
815.06	154.20
815.36	152.64
815.66	154.01
815.97	153.28
816.27	153.97
816.58	153.01
816.88	153.44
817.18	152.68
817.49	153.08
817.79	153.70
818.09	152.87
818.40	152.79
818.70	153.00
819.00	152.99
819.31	153.39
819.61	153.35
819.91	153.32
820.21	153.60
820.52	153.50
820.82	153.06
821.12	153.15
821.43	152.59
821.73	152.99
822.03	153.16
822.33	153.16
822.64	154.11
822.94	153.28
823.24	153.03
823.54	153.53
823.85	153.04
824.15	153.50
824.45	153.01
824.75	153.18
825.05	153.17
825.36	152.77
825.66	153.13
825.96	152.72
826.26	152.78
826.56	152.61
826.87	153.18
827.17	154.11
827.47	152.99
827.77	152.78
828.07	153.26
828.37	153.35
828.67	153.38
828.98	152.79
829.28	152.89
829.58	153.62
829.88	153.25
830.18	154.29
830.48	154.58
830.78	153.03
831.08	153.21
831.38	153.30
831.69	153.34
831.99	153.37
832.29	153.66
832.59	153.35
832.89	153.20
833.19	152.98
833.49	153.14
833.79	152.63
834.09	155.59
834.39	152.62
834.69	153.14
834.99	152.77
835.29	153.12
835.59	153.18
835.89	153.74
836.19	153.61
836.49	153.66
836.79	152.81
837.09	153.08
837.39	153.15
837.69	153.00
837.99	153.23
838.29	152.95
838.59	152.78
838.89	153.34
839.19	153.60
839.49	152.99
839.79	153.44
840.09	152.93
840.39	153.17
840.68	153.07
840.98	153.06
841.28	153.07
841.58	153.27
841.88	152.99
842.18	153.31
842.48	153.26
842.78	153.03
843.08	154.31
843.37	153.24
843.67	153.38
843.97	153.11
844.27	152.87
844.57	153.42
844.87	153.15
845.16	152.68
845.46	153.09
845.76	153.03
846.06	152.93
846.36	152.90
846.66	152.95
846.95	153.03
847.25	153.22
847.55	153.10
847.85	153.19
848.14	152.58
848.44	152.86
848.74	152.85
849.04	153.38
849.33	153.25
849.63	153.19
849.93	153.22
850.23	152.93
850.52	152.70
850.82	152.86
851.12	152.67
851.42	152.96
851.71	152.96
852.01	153.10
852.31	152.96
852.60	153.02
852.90	153.37
853.20	152.86
853.49	153.10
853.79	153.22
854.09	153.56
854.38	153.42
854.68	153.02
854.98	152.70
855.27	153.56
855.57	152.83
855.86	152.41
856.16	153.15
856.46	153.00
856.75	153.47
857.05	152.56
857.34	152.73
857.64	152.70
857.94	154.61
858.23	153.18
858.53	153.65
858.82	153.12
859.12	152.59
859.41	153.05
859.71	152.60
860.01	152.81
860.30	152.64
860.60	152.83
860.89	154.96
861.19	153.38
861.48	152.74
861.78	152.94
862.07	152.97
862.37	152.92
862.66	153.28
862.96	153.29
863.25	152.88
863.55	153.57
863.84	152.56
864.13	152.50
864.43	153.24
864.72	153.00
865.02	152.98
865.31	153.34
865.61	152.98
865.90	152.49
866.19	153.19
866.49	152.91
866.78	152.65
867.08	153.46
867.37	153.12
867.66	153.30
867.96	153.17
868.25	153.78
868.55	153.74
868.84	153.09
869.13	152.71
869.43	152.78
869.72	153.09
870.01	153.95
870.31	152.86
870.60	153.00
870.89	152.90
871.19	154.01
871.48	152.99
871.77	153.15
872.07	153.29
872.36	153.35
872.65	152.46
872.94	153.24
873.24	153.25
873.53	153.21
873.82	153.12
874.11	153.36
874.41	152.74
874.70	153.19
>>>>>End Processed Spectral Data<<<<<
