SpectraSuite Data File
++++++++++++++++++++++++++++++++++++
Date: Tue Jun 23 15:48:57 BST 2015
User: mpfc3
Dark Spectrum Present: No
Reference Spectrum Present: No
Number of Sampled Component Spectra: 1
Spectrometers: USB2E3636
Integration Time (usec): 30000 (USB2E3636)
Spectra Averaged: 100 (USB2E3636)
Boxcar Smoothing: 0 (USB2E3636)
Correct for Electrical Dark: No (USB2E3636)
Strobe/Lamp Enabled: No (USB2E3636)
Correct for Detector Non-linearity: No (USB2E3636)
Correct for Stray Light: No (USB2E3636)
Number of Pixels in Processed Spectrum: 2048
>>>>>Begin Processed Spectral Data<<<<<
180.28	0.00
180.65	144.52
181.02	145.23
181.39	146.13
181.77	147.00
182.14	148.48
182.51	148.36
182.88	149.21
183.25	150.21
183.63	150.38
184.00	150.59
184.37	152.44
184.74	150.50
185.11	150.75
185.49	150.69
185.86	150.97
186.23	150.68
186.60	150.69
186.97	150.64
187.35	150.57
187.72	150.53
188.09	150.88
188.46	149.90
188.83	150.44
189.20	151.50
189.58	152.62
189.95	152.19
190.32	152.51
190.69	152.21
191.06	152.54
191.43	152.48
191.81	152.26
192.18	152.71
192.55	152.30
192.92	152.74
193.29	153.49
193.66	152.47
194.03	152.68
194.41	152.65
194.78	152.57
195.15	153.22
195.52	152.88
195.89	153.19
196.26	152.83
196.63	152.92
197.01	153.34
197.38	153.00
197.75	153.66
198.12	153.63
198.49	153.41
198.86	153.27
199.23	153.60
199.60	153.12
199.98	153.77
200.35	153.07
200.72	153.50
201.09	153.58
201.46	153.51
201.83	154.03
202.20	153.40
202.57	153.28
202.94	153.52
203.31	153.94
203.69	153.90
204.06	155.02
204.43	153.52
204.80	154.56
205.17	153.88
205.54	153.72
205.91	153.63
206.28	153.97
206.65	154.21
207.02	153.73
207.39	154.07
207.76	153.68
208.14	154.28
208.51	153.68
208.88	153.99
209.25	153.89
209.62	153.71
209.99	154.22
210.36	154.17
210.73	154.63
211.10	154.54
211.47	154.10
211.84	154.41
212.21	154.75
212.58	154.19
212.95	154.62
213.32	154.21
213.69	154.45
214.06	154.31
214.43	154.82
214.80	154.83
215.17	154.38
215.55	154.62
215.92	155.03
216.29	154.25
216.66	154.56
217.03	154.27
217.40	154.53
217.77	154.58
218.14	154.69
218.51	154.24
218.88	154.84
219.25	155.05
219.62	154.65
219.99	154.75
220.36	154.78
220.73	155.69
221.10	154.60
221.47	155.01
221.84	154.79
222.21	155.49
222.58	154.63
222.95	155.28
223.32	154.69
223.69	154.48
224.06	155.07
224.43	154.82
224.80	154.87
225.17	154.69
225.54	154.91
225.91	154.95
226.27	165.61
226.64	155.18
227.01	154.94
227.38	155.03
227.75	154.85
228.12	154.89
228.49	156.16
228.86	154.60
229.23	155.37
229.60	154.82
229.97	154.58
230.34	155.29
230.71	155.07
231.08	156.11
231.45	154.93
231.82	155.09
232.19	155.15
232.56	155.15
232.93	154.98
233.30	155.53
233.66	155.40
234.03	155.86
234.40	155.33
234.77	155.63
235.14	155.26
235.51	154.67
235.88	155.25
236.25	154.72
236.62	155.94
236.99	155.82
237.36	155.66
237.73	155.11
238.09	155.06
238.46	155.44
238.83	155.62
239.20	155.36
239.57	155.46
239.94	155.36
240.31	155.62
240.68	155.34
241.05	155.47
241.41	155.43
241.78	154.80
242.15	155.32
242.52	155.58
242.89	155.19
243.26	155.13
243.63	154.85
244.00	155.45
244.36	155.12
244.73	155.02
245.10	155.59
245.47	155.54
245.84	155.30
246.21	155.40
246.58	155.76
246.94	155.74
247.31	155.20
247.68	155.39
248.05	155.27
248.42	155.46
248.79	155.53
249.15	155.61
249.52	155.80
249.89	155.13
250.26	156.71
250.63	155.27
251.00	156.33
251.36	155.40
251.73	155.46
252.10	156.13
252.47	155.40
252.84	156.20
253.20	155.36
253.57	155.60
253.94	155.30
254.31	155.58
254.68	155.13
255.05	155.86
255.41	155.54
255.78	155.44
256.15	155.34
256.52	155.29
256.88	155.48
257.25	155.75
257.62	155.53
257.99	155.22
258.36	155.86
258.72	155.01
259.09	155.39
259.46	155.54
259.83	155.51
260.19	155.38
260.56	155.60
260.93	155.50
261.30	155.31
261.67	156.09
262.03	155.49
262.40	155.56
262.77	155.71
263.14	155.54
263.50	155.61
263.87	155.44
264.24	156.06
264.61	155.56
264.97	155.58
265.34	155.18
265.71	155.50
266.07	155.27
266.44	155.60
266.81	155.70
267.18	156.15
267.54	156.09
267.91	155.84
268.28	155.40
268.64	155.23
269.01	155.18
269.38	155.85
269.75	155.78
270.11	154.97
270.48	156.03
270.85	155.82
271.21	155.58
271.58	155.67
271.95	155.58
272.32	155.77
272.68	156.09
273.05	155.47
273.42	155.40
273.78	156.00
274.15	155.88
274.52	155.51
274.88	155.67
275.25	155.84
275.62	155.62
275.98	155.84
276.35	155.95
276.72	156.39
277.08	155.82
277.45	155.56
277.82	156.12
278.18	155.71
278.55	155.87
278.92	155.37
279.28	155.52
279.65	155.60
280.01	155.84
280.38	155.91
280.75	155.69
281.11	155.95
281.48	155.56
281.85	155.63
282.21	155.49
282.58	155.70
282.95	155.71
283.31	155.68
283.68	156.05
284.04	156.11
284.41	155.80
284.78	155.61
285.14	158.62
285.51	157.12
285.87	155.30
286.24	155.39
286.61	155.66
286.97	156.27
287.34	155.28
287.70	155.72
288.07	155.40
288.44	155.54
288.80	155.54
289.17	155.69
289.53	155.82
289.90	156.52
290.26	155.42
290.63	155.90
291.00	155.98
291.36	155.93
291.73	155.76
292.09	156.00
292.46	155.64
292.82	155.75
293.19	155.71
293.56	155.57
293.92	155.75
294.29	155.51
294.65	156.34
295.02	155.49
295.38	155.68
295.75	156.58
296.11	155.14
296.48	155.80
296.84	155.73
297.21	155.37
297.57	155.65
297.94	156.08
298.30	155.62
298.67	155.65
299.04	155.88
299.40	155.81
299.77	155.52
300.13	156.22
300.50	156.02
300.86	155.68
301.23	155.69
301.59	156.16
301.96	155.99
302.32	155.53
302.69	156.09
303.05	156.16
303.42	155.96
303.78	155.67
304.14	155.67
304.51	155.66
304.87	156.22
305.24	155.97
305.60	156.18
305.97	155.79
306.33	155.45
306.70	155.52
307.06	156.17
307.43	156.87
307.79	155.81
308.16	155.80
308.52	155.74
308.88	155.97
309.25	155.88
309.61	155.85
309.98	155.85
310.34	155.87
310.71	155.84
311.07	156.01
311.44	156.04
311.80	155.27
312.16	155.94
312.53	156.15
312.89	156.08
313.26	155.61
313.62	155.98
313.98	155.96
314.35	156.28
314.71	156.65
315.08	156.31
315.44	156.11
315.80	155.86
316.17	155.76
316.53	158.46
316.90	156.32
317.26	156.22
317.62	156.38
317.99	155.79
318.35	156.57
318.72	155.67
319.08	155.49
319.44	156.30
319.81	155.79
320.17	156.22
320.53	156.57
320.90	156.11
321.26	155.64
321.62	156.83
321.99	155.88
322.35	156.54
322.72	155.57
323.08	155.77
323.44	155.77
323.81	155.87
324.17	155.59
324.53	156.18
324.90	156.03
325.26	155.62
325.62	156.20
325.99	155.12
326.35	156.23
326.71	155.81
327.08	156.25
327.44	155.91
327.80	155.99
328.16	156.96
328.53	156.09
328.89	156.34
329.25	156.30
329.62	155.97
329.98	155.82
330.34	155.79
330.71	155.65
331.07	156.06
331.43	155.96
331.79	156.27
332.16	155.89
332.52	155.90
332.88	156.02
333.24	155.64
333.61	155.55
333.97	155.98
334.33	155.93
334.70	156.32
335.06	155.98
335.42	156.31
335.78	157.72
336.15	156.57
336.51	155.52
336.87	155.92
337.23	156.36
337.60	156.21
337.96	156.13
338.32	155.53
338.68	156.09
339.04	155.94
339.41	155.79
339.77	156.55
340.13	155.95
340.49	155.69
340.86	155.83
341.22	155.99
341.58	155.83
341.94	156.02
342.30	155.70
342.67	155.77
343.03	156.10
343.39	155.95
343.75	155.88
344.11	156.05
344.48	155.62
344.84	156.47
345.20	156.18
345.56	155.67
345.92	155.82
346.28	155.95
346.65	157.87
347.01	156.18
347.37	156.08
347.73	156.61
348.09	156.26
348.45	155.70
348.82	156.69
349.18	156.21
349.54	156.12
349.90	155.96
350.26	156.12
350.62	155.73
350.98	156.43
351.35	156.21
351.71	156.13
352.07	156.13
352.43	156.07
352.79	156.55
353.15	156.49
353.51	156.94
353.87	156.24
354.24	156.38
354.60	155.82
354.96	156.09
355.32	155.93
355.68	155.88
356.04	155.77
356.40	156.87
356.76	156.68
357.12	156.05
357.48	156.29
357.85	156.04
358.21	156.06
358.57	155.90
358.93	156.44
359.29	156.04
359.65	155.98
360.01	156.23
360.37	156.34
360.73	156.04
361.09	156.16
361.45	156.07
361.81	156.31
362.17	156.12
362.53	156.75
362.89	156.13
363.25	155.79
363.62	156.14
363.98	156.62
364.34	156.12
364.70	156.28
365.06	156.27
365.42	156.10
365.78	156.32
366.14	156.11
366.50	156.26
366.86	156.83
367.22	156.88
367.58	156.49
367.94	156.25
368.30	156.24
368.66	156.53
369.02	157.33
369.38	156.71
369.74	156.16
370.10	156.33
370.46	157.31
370.82	156.66
371.18	156.27
371.54	156.21
371.90	156.30
372.26	156.52
372.62	156.74
372.98	156.29
373.33	157.37
373.69	156.77
374.05	156.88
374.41	156.84
374.77	156.53
375.13	157.06
375.49	156.37
375.85	156.60
376.21	157.00
376.57	156.52
376.93	157.10
377.29	156.48
377.65	156.97
378.01	156.71
378.37	156.80
378.73	156.85
379.08	157.29
379.44	157.37
379.80	157.33
380.16	157.69
380.52	157.27
380.88	157.55
381.24	157.43
381.60	157.41
381.96	157.77
382.32	157.74
382.67	157.68
383.03	158.19
383.39	158.03
383.75	158.71
384.11	157.80
384.47	158.32
384.83	158.95
385.19	158.48
385.54	158.69
385.90	158.33
386.26	158.63
386.62	159.09
386.98	158.69
387.34	159.03
387.70	159.45
388.05	159.56
388.41	159.57
388.77	160.74
389.13	160.11
389.49	160.23
389.85	160.50
390.20	160.89
390.56	160.94
390.92	161.23
391.28	161.40
391.64	161.53
391.99	161.65
392.35	162.08
392.71	162.37
393.07	162.48
393.43	162.32
393.78	162.75
394.14	163.22
394.50	163.26
394.86	164.63
395.22	163.90
395.57	164.28
395.93	164.22
396.29	165.26
396.65	164.64
397.00	165.42
397.36	165.55
397.72	165.94
398.08	165.96
398.43	166.72
398.79	166.89
399.15	167.50
399.51	168.05
399.86	167.74
400.22	167.78
400.58	168.60
400.94	168.62
401.29	169.30
401.65	169.84
402.01	170.07
402.37	169.71
402.72	170.90
403.08	171.93
403.44	172.51
403.79	171.55
404.15	171.89
404.51	172.91
404.86	173.21
405.22	173.84
405.58	174.47
405.94	174.35
406.29	175.64
406.65	174.89
407.01	175.41
407.36	176.29
407.72	176.32
408.08	176.68
408.43	177.45
408.79	178.06
409.15	178.19
409.50	178.57
409.86	178.85
410.22	179.29
410.57	180.57
410.93	180.39
411.29	183.12
411.64	181.45
412.00	182.52
412.35	183.85
412.71	183.38
413.07	184.37
413.42	183.95
413.78	185.32
414.14	185.48
414.49	186.39
414.85	186.97
415.20	188.65
415.56	189.36
415.92	189.33
416.27	189.59
416.63	191.04
416.98	191.43
417.34	193.08
417.70	192.79
418.05	193.05
418.41	193.78
418.76	195.71
419.12	195.13
419.47	196.28
419.83	195.96
420.19	198.76
420.54	198.34
420.90	198.63
421.25	199.62
421.61	200.52
421.96	199.63
422.32	203.40
422.67	202.94
423.03	203.83
423.39	204.73
423.74	206.07
424.10	206.76
424.45	207.73
424.81	207.46
425.16	208.36
425.52	210.09
425.87	209.65
426.23	211.48
426.58	211.38
426.94	213.62
427.29	215.81
427.65	215.90
428.00	215.28
428.36	217.01
428.71	217.64
429.07	217.26
429.42	220.28
429.78	220.67
430.13	222.91
430.49	222.47
430.84	223.92
431.19	224.80
431.55	224.49
431.90	227.11
432.26	227.74
432.61	229.37
432.97	229.76
433.32	230.95
433.68	232.60
434.03	232.98
434.39	235.42
434.74	235.19
435.09	237.10
435.45	237.13
435.80	239.26
436.16	238.57
436.51	240.06
436.86	242.68
437.22	242.80
437.57	248.23
437.93	247.93
438.28	248.94
438.63	248.63
438.99	250.40
439.34	253.37
439.70	252.12
440.05	251.14
440.40	256.05
440.76	256.64
441.11	258.15
441.47	263.55
441.82	262.83
442.17	263.90
442.53	264.14
442.88	264.52
443.23	266.97
443.59	266.19
443.94	269.56
444.29	269.83
444.65	272.53
445.00	273.13
445.35	273.93
445.71	275.09
446.06	278.29
446.41	276.40
446.77	278.66
447.12	282.25
447.47	281.63
447.83	286.40
448.18	285.65
448.53	282.70
448.89	286.38
449.24	287.70
449.59	295.36
449.94	292.36
450.30	291.06
450.65	294.82
451.00	300.80
451.36	300.91
451.71	299.96
452.06	302.94
452.41	305.60
452.77	305.51
453.12	312.09
453.47	312.21
453.82	315.53
454.18	306.50
454.53	314.67
454.88	314.27
455.23	320.29
455.59	316.00
455.94	321.52
456.29	326.26
456.64	322.00
457.00	321.84
457.35	331.12
457.70	325.85
458.05	333.92
458.40	338.53
458.76	342.13
459.11	341.63
459.46	338.64
459.81	340.58
460.16	342.83
460.52	353.56
460.87	348.97
461.22	353.14
461.57	356.82
461.92	352.86
462.28	360.27
462.63	368.45
462.98	366.95
463.33	370.41
463.68	374.27
464.03	371.70
464.38	378.04
464.74	376.44
465.09	379.37
465.44	388.51
465.79	391.44
466.14	388.60
466.49	398.11
466.84	399.56
467.20	406.51
467.55	409.12
467.90	411.69
468.25	413.10
468.60	421.43
468.95	415.70
469.30	420.79
469.65	428.04
470.00	430.71
470.36	438.16
470.71	448.60
471.06	449.15
471.41	446.73
471.76	455.87
472.11	458.36
472.46	463.60
472.81	468.46
473.16	475.00
473.51	475.77
473.86	482.71
474.21	486.55
474.56	497.90
474.91	499.71
475.26	500.61
475.62	506.67
475.97	519.98
476.32	513.63
476.67	517.95
477.02	529.32
477.37	536.01
477.72	543.04
478.07	545.05
478.42	544.95
478.77	552.54
479.12	566.90
479.47	566.48
479.82	570.35
480.17	581.14
480.52	592.52
480.87	592.29
481.22	590.18
481.57	598.46
481.92	595.60
482.27	609.89
482.62	621.47
482.97	619.86
483.32	625.94
483.67	625.54
484.02	632.06
484.36	635.47
484.71	647.18
485.06	652.13
485.41	653.14
485.76	665.00
486.11	665.75
486.46	667.78
486.81	673.45
487.16	677.55
487.51	685.27
487.86	692.71
488.21	698.17
488.56	704.52
488.91	707.29
489.25	717.69
489.60	720.98
489.95	726.22
490.30	734.49
490.65	737.90
491.00	747.54
491.35	749.98
491.70	750.12
492.05	762.33
492.39	769.41
492.74	772.13
493.09	781.47
493.44	784.14
493.79	790.19
494.14	796.53
494.49	800.80
494.83	804.86
495.18	814.59
495.53	819.76
495.88	831.67
496.23	837.71
496.58	837.32
496.92	845.09
497.27	855.68
497.62	862.53
497.97	861.77
498.32	872.72
498.67	876.75
499.01	887.09
499.36	890.99
499.71	895.17
500.06	899.59
500.41	910.09
500.75	915.72
501.10	921.32
501.45	929.24
501.80	930.09
502.14	935.43
502.49	941.24
502.84	943.07
503.19	957.42
503.53	957.65
503.88	963.46
504.23	966.59
504.58	972.12
504.92	977.00
505.27	981.46
505.62	987.40
505.97	990.34
506.31	991.19
506.66	1001.24
507.01	1002.69
507.36	1006.42
507.70	1009.00
508.05	1013.77
508.40	1016.17
508.74	1018.02
509.09	1018.87
509.44	1020.60
509.79	1023.95
510.13	1025.29
510.48	1025.58
510.83	1032.49
511.17	1027.54
511.52	1032.67
511.87	1037.25
512.21	1035.29
512.56	1037.61
512.91	1039.63
513.25	1047.64
513.60	1042.59
513.95	1048.56
514.29	1048.14
514.64	1052.94
514.98	1053.79
515.33	1054.38
515.68	1061.38
516.02	1060.64
516.37	1058.81
516.72	1060.05
517.06	1068.04
517.41	1070.66
517.75	1067.16
518.10	1072.96
518.45	1071.09
518.79	1074.18
519.14	1075.73
519.48	1077.93
519.83	1077.30
520.18	1074.91
520.52	1080.73
520.87	1084.24
521.21	1080.88
521.56	1077.21
521.90	1078.47
522.25	1080.51
522.60	1079.80
522.94	1084.56
523.29	1087.49
523.63	1081.32
523.98	1080.26
524.32	1082.78
524.67	1082.83
525.01	1077.73
525.36	1075.66
525.70	1080.40
526.05	1083.97
526.39	1072.87
526.74	1077.42
527.08	1074.48
527.43	1074.29
527.77	1070.87
528.12	1070.95
528.46	1068.53
528.81	1068.40
529.15	1067.15
529.50	1069.42
529.84	1061.08
530.19	1061.23
530.53	1053.01
530.88	1048.50
531.22	1050.27
531.57	1046.63
531.91	1041.64
532.26	1039.28
532.60	1034.49
532.94	1028.72
533.29	1025.22
533.63	1021.39
533.98	1015.22
534.32	1013.36
534.67	1007.07
535.01	997.87
535.35	995.48
535.70	986.95
536.04	980.93
536.39	975.45
536.73	968.26
537.07	962.44
537.42	958.40
537.76	952.23
538.11	943.35
538.45	939.24
538.79	934.35
539.14	929.32
539.48	920.91
539.82	916.70
540.17	914.47
540.51	909.17
540.85	902.00
541.20	895.52
541.54	891.28
541.89	889.63
542.23	883.72
542.57	883.17
542.92	882.99
543.26	876.72
543.60	881.63
543.94	880.24
544.29	876.74
544.63	872.45
544.97	879.29
545.32	877.89
545.66	877.53
546.00	877.96
546.35	879.89
546.69	884.08
547.03	879.79
547.37	882.60
547.72	885.02
548.06	892.02
548.40	891.63
548.75	895.24
549.09	898.73
549.43	902.13
549.77	906.90
550.12	906.42
550.46	915.98
550.80	914.80
551.14	925.77
551.49	930.18
551.83	940.10
552.17	941.72
552.51	944.17
552.85	952.07
553.20	955.46
553.54	965.19
553.88	973.62
554.22	976.81
554.56	995.11
554.91	1000.90
555.25	1005.54
555.59	1017.96
555.93	1025.49
556.27	1034.24
556.62	1042.88
556.96	1053.96
557.30	1059.11
557.64	1068.28
557.98	1076.29
558.32	1088.95
558.67	1097.13
559.01	1106.49
559.35	1111.92
559.69	1122.21
560.03	1135.16
560.37	1148.14
560.71	1148.73
561.05	1159.11
561.40	1162.63
561.74	1176.73
562.08	1177.53
562.42	1185.09
562.76	1200.29
563.10	1203.14
563.44	1208.00
563.78	1215.01
564.12	1222.55
564.46	1226.87
564.81	1232.16
565.15	1238.25
565.49	1235.51
565.83	1245.66
566.17	1243.80
566.51	1246.75
566.85	1249.10
567.19	1252.87
567.53	1253.70
567.87	1259.85
568.21	1260.64
568.55	1255.44
568.89	1258.04
569.23	1260.74
569.57	1258.31
569.91	1257.62
570.25	1254.50
570.59	1261.26
570.93	1257.36
571.27	1253.02
571.61	1250.16
571.95	1250.74
572.29	1247.38
572.63	1250.03
572.97	1249.37
573.31	1240.06
573.65	1236.20
573.99	1232.64
574.33	1226.77
574.67	1227.84
575.01	1215.53
575.35	1214.97
575.69	1213.57
576.03	1213.76
576.37	1206.45
576.71	1203.34
577.05	1193.52
577.39	1187.39
577.73	1184.44
578.06	1182.19
578.40	1176.10
578.74	1165.21
579.08	1161.81
579.42	1159.91
579.76	1147.12
580.10	1144.67
580.44	1138.43
580.78	1131.88
581.12	1122.83
581.45	1120.97
581.79	1115.88
582.13	1102.48
582.47	1104.81
582.81	1095.41
583.15	1091.29
583.49	1082.20
583.83	1078.38
584.16	1072.02
584.50	1071.49
584.84	1068.40
585.18	1057.71
585.52	1050.42
585.86	1053.70
586.19	1043.82
586.53	1039.84
586.87	1035.40
587.21	1023.11
587.55	1024.55
587.88	1023.18
588.22	1014.56
588.56	1007.14
588.90	1001.25
589.24	996.01
589.57	989.41
589.91	984.67
590.25	975.90
590.59	967.19
590.92	964.86
591.26	958.70
591.60	945.82
591.94	942.14
592.27	931.46
592.61	921.27
592.95	914.35
593.29	909.30
593.62	899.21
593.96	889.31
594.30	883.11
594.64	870.88
594.97	863.33
595.31	850.30
595.65	836.11
595.98	826.89
596.32	811.51
596.66	799.71
597.00	788.62
597.33	775.55
597.67	755.82
598.01	746.28
598.34	732.05
598.68	716.55
599.02	700.19
599.35	686.26
599.69	677.14
600.03	663.30
600.36	650.31
600.70	639.89
601.03	626.18
601.37	619.42
601.71	608.02
602.04	595.60
602.38	582.49
602.72	576.02
603.05	566.48
603.39	554.55
603.72	543.76
604.06	533.77
604.40	524.58
604.73	512.02
605.07	504.13
605.40	492.58
605.74	481.32
606.08	469.95
606.41	459.92
606.75	451.57
607.08	439.44
607.42	430.10
607.75	420.93
608.09	409.98
608.42	399.59
608.76	389.44
609.10	380.38
609.43	369.02
609.77	359.44
610.10	350.64
610.44	342.39
610.77	333.34
611.11	325.16
611.44	316.47
611.78	308.54
612.11	300.78
612.45	294.25
612.78	286.62
613.12	279.52
613.45	273.87
613.79	267.30
614.12	261.18
614.46	255.74
614.79	250.60
615.13	246.30
615.46	241.66
615.79	236.70
616.13	234.27
616.46	229.45
616.80	226.47
617.13	223.85
617.47	220.15
617.80	217.14
618.13	215.10
618.47	212.01
618.80	210.56
619.14	207.85
619.47	205.80
619.81	204.27
620.14	202.38
620.47	201.25
620.81	199.33
621.14	198.36
621.47	196.98
621.81	195.61
622.14	194.52
622.48	193.13
622.81	192.64
623.14	191.34
623.48	190.52
623.81	190.15
624.14	188.89
624.48	188.84
624.81	187.79
625.14	187.49
625.48	187.31
625.81	187.17
626.14	187.95
626.48	187.72
626.81	187.84
627.14	187.59
627.48	187.81
627.81	189.05
628.14	189.81
628.47	192.48
628.81	191.26
629.14	191.58
629.47	193.01
629.81	194.96
630.14	196.32
630.47	196.77
630.80	199.24
631.14	201.37
631.47	204.52
631.80	206.44
632.13	208.67
632.47	211.76
632.80	215.28
633.13	219.06
633.46	222.37
633.79	225.19
634.13	230.03
634.46	234.30
634.79	240.07
635.12	244.52
635.45	250.06
635.79	255.08
636.12	261.79
636.45	267.32
636.78	273.63
637.11	280.65
637.45	287.26
637.78	294.24
638.11	302.95
638.44	309.65
638.77	317.99
639.10	326.70
639.44	334.75
639.77	343.63
640.10	351.68
640.43	359.70
640.76	369.67
641.09	378.18
641.42	385.85
641.75	394.75
642.08	404.85
642.42	413.44
642.75	421.59
643.08	431.99
643.41	440.51
643.74	447.42
644.07	455.70
644.40	462.65
644.73	470.05
645.06	478.90
645.39	487.04
645.72	494.79
646.05	498.26
646.38	508.16
646.72	514.72
647.05	520.56
647.38	527.16
647.71	531.06
648.04	536.78
648.37	541.52
648.70	542.54
649.03	548.30
649.36	551.01
649.69	553.81
650.02	557.89
650.35	558.75
650.68	560.05
651.01	557.70
651.34	558.85
651.67	555.96
652.00	558.18
652.33	552.27
652.66	549.70
652.99	546.21
653.31	543.45
653.64	536.25
653.97	530.05
654.30	526.15
654.63	516.16
654.96	508.48
655.29	503.07
655.62	493.01
655.95	485.38
656.28	476.57
656.61	466.33
656.94	458.57
657.27	449.31
657.60	440.32
657.92	431.52
658.25	423.37
658.58	415.87
658.91	407.32
659.24	399.90
659.57	393.03
659.90	385.30
660.23	377.67
660.55	372.09
660.88	366.50
661.21	358.39
661.54	353.10
661.87	346.28
662.20	340.65
662.52	335.25
662.85	330.74
663.18	323.65
663.51	317.91
663.84	312.81
664.16	306.31
664.49	303.73
664.82	299.26
665.15	296.40
665.48	291.67
665.80	286.54
666.13	284.20
666.46	279.83
666.79	276.05
667.12	273.09
667.44	269.72
667.77	266.82
668.10	263.74
668.43	261.07
668.75	258.64
669.08	256.30
669.41	253.37
669.73	251.71
670.06	249.37
670.39	248.37
670.72	245.49
671.04	243.67
671.37	243.16
671.70	240.37
672.02	239.52
672.35	238.40
672.68	237.06
673.00	235.77
673.33	234.90
673.66	233.11
673.98	232.97
674.31	231.86
674.64	230.05
674.96	230.30
675.29	229.01
675.62	228.46
675.94	227.82
676.27	228.29
676.60	227.20
676.92	226.59
677.25	226.18
677.58	226.61
677.90	224.87
678.23	224.90
678.55	225.76
678.88	224.46
679.21	223.30
679.53	223.05
679.86	222.39
680.18	221.77
680.51	221.37
680.83	220.86
681.16	221.38
681.49	219.96
681.81	217.82
682.14	218.09
682.46	217.70
682.79	216.03
683.11	215.54
683.44	215.12
683.76	214.81
684.09	214.32
684.41	214.25
684.74	213.32
685.06	212.64
685.39	211.65
685.71	211.29
686.04	211.25
686.36	211.16
686.69	211.07
687.01	209.35
687.34	208.95
687.66	208.71
687.99	207.73
688.31	208.17
688.64	207.27
688.96	206.40
689.29	205.44
689.61	204.87
689.93	204.44
690.26	203.31
690.58	202.43
690.91	201.97
691.23	200.74
691.56	198.97
691.88	198.99
692.20	197.74
692.53	196.08
692.85	195.01
693.18	193.68
693.50	192.62
693.82	189.99
694.15	189.11
694.47	187.76
694.79	186.35
695.12	185.06
695.44	184.31
695.76	182.55
696.09	181.29
696.41	179.58
696.73	179.46
697.06	176.88
697.38	175.21
697.70	173.75
698.03	172.75
698.35	171.77
698.67	170.71
699.00	168.80
699.32	168.29
699.64	167.65
699.97	165.70
700.29	164.98
700.61	163.68
700.93	163.44
701.26	162.47
701.58	162.21
701.90	161.53
702.22	160.11
702.55	160.37
702.87	159.02
703.19	159.09
703.51	158.81
703.84	158.35
704.16	158.20
704.48	157.97
704.80	157.94
705.13	157.40
705.45	158.16
705.77	156.85
706.09	158.07
706.41	156.89
706.74	156.51
707.06	156.31
707.38	156.13
707.70	155.75
708.02	155.36
708.34	155.54
708.67	155.19
708.99	155.32
709.31	155.75
709.63	155.21
709.95	154.68
710.27	154.82
710.59	155.37
710.92	155.88
711.24	155.06
711.56	154.68
711.88	154.84
712.20	155.22
712.52	154.72
712.84	154.55
713.16	154.68
713.48	154.55
713.80	154.71
714.12	154.80
714.45	154.30
714.77	154.70
715.09	154.82
715.41	154.40
715.73	154.75
716.05	155.17
716.37	154.91
716.69	154.42
717.01	154.58
717.33	156.12
717.65	154.49
717.97	154.11
718.29	154.41
718.61	154.35
718.93	154.67
719.25	154.76
719.57	154.31
719.89	154.74
720.21	154.90
720.53	154.34
720.85	154.35
721.17	154.70
721.49	154.44
721.81	154.51
722.13	154.34
722.45	154.37
722.77	154.63
723.09	154.66
723.41	154.35
723.72	154.24
724.04	154.02
724.36	154.65
724.68	154.46
725.00	155.44
725.32	154.77
725.64	154.04
725.96	153.89
726.28	154.22
726.60	154.23
726.91	153.99
727.23	154.63
727.55	154.51
727.87	154.44
728.19	154.57
728.51	154.10
728.83	154.44
729.14	154.55
729.46	154.54
729.78	154.13
730.10	154.26
730.42	153.75
730.74	154.27
731.05	153.80
731.37	153.93
731.69	153.95
732.01	154.69
732.33	154.25
732.64	154.41
732.96	154.16
733.28	153.99
733.60	154.47
733.92	154.37
734.23	154.12
734.55	154.46
734.87	153.82
735.19	154.56
735.50	153.85
735.82	153.75
736.14	153.98
736.45	154.25
736.77	153.94
737.09	153.98
737.41	154.15
737.72	154.14
738.04	154.03
738.36	153.95
738.67	154.51
738.99	153.67
739.31	154.06
739.63	154.36
739.94	153.53
740.26	153.67
740.58	154.10
740.89	153.97
741.21	154.27
741.52	154.38
741.84	153.67
742.16	153.50
742.47	154.14
742.79	153.88
743.11	154.66
743.42	154.44
743.74	160.16
744.05	154.27
744.37	153.71
744.69	154.09
745.00	154.70
745.32	154.43
745.63	153.79
745.95	153.60
746.27	154.01
746.58	154.13
746.90	153.95
747.21	153.65
747.53	154.02
747.84	153.53
748.16	153.36
748.47	153.56
748.79	153.94
749.10	154.13
749.42	153.75
749.74	154.20
750.05	153.92
750.37	153.80
750.68	153.71
751.00	154.37
751.31	153.35
751.62	153.63
751.94	154.13
752.25	154.10
752.57	153.81
752.88	154.60
753.20	153.43
753.51	154.38
753.83	154.91
754.14	153.98
754.46	153.34
754.77	153.21
755.08	153.77
755.40	153.98
755.71	153.77
756.03	153.53
756.34	153.54
756.66	153.38
756.97	153.61
757.28	153.39
757.60	153.34
757.91	153.41
758.22	153.75
758.54	154.20
758.85	153.58
759.17	153.48
759.48	153.92
759.79	153.67
760.11	153.64
760.42	154.08
760.73	153.60
761.05	153.34
761.36	153.62
761.67	153.64
761.99	153.58
762.30	154.15
762.61	153.69
762.92	153.76
763.24	153.60
763.55	153.58
763.86	153.91
764.18	153.77
764.49	153.26
764.80	153.80
765.11	153.41
765.43	153.73
765.74	153.77
766.05	153.39
766.36	153.94
766.68	154.20
766.99	153.83
767.30	153.63
767.61	153.72
767.93	153.84
768.24	153.35
768.55	153.98
768.86	153.40
769.17	153.46
769.49	153.36
769.80	153.45
770.11	153.45
770.42	153.77
770.73	153.86
771.04	153.83
771.36	153.60
771.67	153.28
771.98	153.46
772.29	153.82
772.60	153.85
772.91	153.34
773.22	153.81
773.54	153.05
773.85	153.25
774.16	153.35
774.47	153.64
774.78	153.61
775.09	153.76
775.40	153.41
775.71	152.95
776.02	153.91
776.33	153.41
776.64	153.18
776.96	153.54
777.27	153.73
777.58	153.69
777.89	153.23
778.20	153.29
778.51	153.44
778.82	153.43
779.13	154.23
779.44	153.54
779.75	153.44
780.06	152.87
780.37	153.05
780.68	153.97
780.99	153.57
781.30	153.00
781.61	153.20
781.92	153.81
782.23	153.15
782.54	153.23
782.85	153.39
783.16	153.69
783.47	153.65
783.78	153.13
784.08	153.35
784.39	153.10
784.70	153.00
785.01	153.27
785.32	153.26
785.63	153.04
785.94	153.39
786.25	153.00
786.56	152.98
786.87	153.54
787.18	153.53
787.48	153.00
787.79	153.08
788.10	153.63
788.41	153.85
788.72	153.33
789.03	153.57
789.34	152.89
789.64	153.31
789.95	153.29
790.26	153.42
790.57	153.80
790.88	153.43
791.19	153.15
791.49	152.67
791.80	155.35
792.11	153.71
792.42	153.98
792.73	152.72
793.03	153.02
793.34	153.17
793.65	153.77
793.96	153.69
794.27	153.54
794.57	153.88
794.88	153.48
795.19	153.27
795.50	153.74
795.80	153.48
796.11	153.42
796.42	153.23
796.72	153.13
797.03	153.01
797.34	153.70
797.65	153.18
797.95	154.36
798.26	153.30
798.57	153.31
798.87	153.36
799.18	153.48
799.49	153.57
799.79	152.98
800.10	153.81
800.41	153.71
800.71	152.62
801.02	153.25
801.33	153.37
801.63	152.76
801.94	153.41
802.24	153.93
802.55	153.75
802.86	153.43
803.16	153.33
803.47	153.18
803.77	153.01
804.08	153.21
804.39	153.13
804.69	153.36
805.00	153.03
805.30	153.43
805.61	153.14
805.91	152.88
806.22	152.93
806.53	155.34
806.83	153.15
807.14	152.95
807.44	152.66
807.75	152.91
808.05	153.40
808.36	153.31
808.66	153.22
808.97	153.20
809.27	153.23
809.58	153.05
809.88	153.72
810.19	153.69
810.49	153.38
810.80	153.21
811.10	154.14
811.41	153.30
811.71	154.08
812.01	153.00
812.32	152.76
812.62	153.32
812.93	153.52
813.23	153.19
813.54	152.83
813.84	153.56
814.14	153.32
814.45	153.15
814.75	153.08
815.06	154.26
815.36	152.88
815.66	153.84
815.97	153.07
816.27	153.87
816.58	153.24
816.88	153.17
817.18	153.41
817.49	153.30
817.79	153.53
818.09	153.59
818.40	152.98
818.70	152.94
819.00	153.08
819.31	153.32
819.61	153.43
819.91	153.41
820.21	153.35
820.52	152.98
820.82	152.89
821.12	153.09
821.43	153.02
821.73	152.99
822.03	153.18
822.33	153.08
822.64	153.21
822.94	153.48
823.24	152.96
823.54	153.14
823.85	152.91
824.15	152.98
824.45	152.81
824.75	153.06
825.05	153.17
825.36	152.66
825.66	153.17
825.96	152.90
826.26	153.02
826.56	153.05
826.87	153.35
827.17	153.72
827.47	153.47
827.77	153.37
828.07	153.02
828.37	153.11
828.67	153.18
828.98	152.85
829.28	153.51
829.58	152.56
829.88	153.39
830.18	154.27
830.48	154.27
830.78	153.01
831.08	153.42
831.38	152.87
831.69	153.15
831.99	153.50
832.29	153.96
832.59	152.95
832.89	152.80
833.19	153.11
833.49	153.18
833.79	152.92
834.09	156.00
834.39	152.86
834.69	152.88
834.99	153.40
835.29	153.19
835.59	152.85
835.89	154.44
836.19	152.88
836.49	153.86
836.79	153.27
837.09	153.15
837.39	153.43
837.69	153.16
837.99	153.06
838.29	153.22
838.59	153.31
838.89	153.56
839.19	153.80
839.49	153.02
839.79	152.96
840.09	152.69
840.39	153.00
840.68	153.38
840.98	153.37
841.28	152.80
841.58	153.32
841.88	153.50
842.18	152.99
842.48	153.47
842.78	153.64
843.08	154.26
843.37	153.96
843.67	153.64
843.97	153.04
844.27	153.19
844.57	153.60
844.87	153.12
845.16	152.70
845.46	153.08
845.76	152.94
846.06	153.18
846.36	153.06
846.66	152.78
846.95	153.31
847.25	153.11
847.55	153.24
847.85	152.83
848.14	152.98
848.44	152.81
848.74	153.01
849.04	152.79
849.33	152.80
849.63	153.02
849.93	153.34
850.23	153.19
850.52	152.51
850.82	153.08
851.12	153.00
851.42	153.28
851.71	153.26
852.01	153.00
852.31	153.08
852.60	153.01
852.90	152.97
853.20	153.12
853.49	153.34
853.79	153.20
854.09	153.23
854.38	153.88
854.68	153.21
854.98	152.75
855.27	153.45
855.57	152.96
855.86	153.09
856.16	153.62
856.46	152.84
856.75	153.15
857.05	153.46
857.34	153.29
857.64	153.17
857.94	153.92
858.23	153.19
858.53	153.59
858.82	153.02
859.12	153.59
859.41	153.62
859.71	153.52
860.01	152.86
860.30	152.93
860.60	153.02
860.89	154.91
861.19	153.19
861.48	153.31
861.78	153.43
862.07	153.37
862.37	152.88
862.66	153.10
862.96	153.64
863.25	153.16
863.55	153.19
863.84	153.26
864.13	153.34
864.43	152.76
864.72	153.45
865.02	153.29
865.31	153.43
865.61	152.74
865.90	153.76
866.19	153.23
866.49	153.05
866.78	153.06
867.08	152.99
867.37	152.66
867.66	153.55
867.96	153.29
868.25	154.07
868.55	153.71
868.84	152.86
869.13	153.09
869.43	152.72
869.72	152.68
870.01	152.87
870.31	153.04
870.60	152.97
870.89	153.18
871.19	153.89
871.48	152.81
871.77	153.28
872.07	153.39
872.36	153.38
872.65	152.98
872.94	153.38
873.24	153.28
873.53	153.15
873.82	153.06
874.11	153.63
874.41	153.56
874.70	153.28
>>>>>End Processed Spectral Data<<<<<
